0,129
50,131
100,131
150,126
200,134
251,124
302,129
352,124
402,134
453,130
503,130
553,125
604,129
655,125
705,128
755,130
805,127
857,124
907,133
957,128
1007,123
1058,127
1108,121
1159,122
1210,122
1260,126
1310,119
1360,126
1412,123
1462,120
1512,124
1563,123
1613,126
1664,125
1715,130
1765,122
1815,124
1865,120
1916,128
1967,131
2017,132
2068,178
2118,335
2168,273
2219,285
2270,300
2320,325
2370,328
2421,466
2471,543
2522,658
2572,622
2623,649
2673,616
2723,517
2775,527
2825,591
2875,633
2926,714
2976,651
3026,754
3077,621
3128,710
3178,630
3228,831
3279,763
3330,636
3380,742
3430,570
3481,406
3531,446
3581,328
3633,404
3683,282
3733,292
3783,270
3834,306
3885,247
3935,263
3986,230
4036,302
4086,235
4137,227
4188,180
4238,175
4288,198
4339,187
4389,195
4440,174
4491,201
4541,177
4591,173
4641,188
4692,163
4743,169
4793,151
4844,167
4894,150
4944,151
4995,156
5046,163
5096,187
5146,170
5197,150
5248,164
5298,150
5349,143
5399,155
5449,150
5499,142
5551,148
5601,161
5651,159
5702,154
5752,144
5803,165
5853,159
5904,182
5954,231
6004,251
6055,229
6106,241
6156,248
6206,275
6257,349
6307,436
6358,570
6409,650
6459,780
6509,814
6560,762
6610,709
6661,658
6711,595
6762,545
6812,569
6862,620
6914,537
6964,603
7014,464
7064,497
7115,532
7165,486
7216,458
7267,475
7317,702
7367,663
7417,895
7469,632
7519,677
7569,626
7620,525
7670,320
7720,327
7772,285
7822,293
7872,293
7922,284
7973,258
8024,298
8074,280
8125,273
8175,244
8225,293
8275,232
8327,181
8377,211
8427,162
8478,185
8528,176
8579,172
8629,184
8680,163
8730,212
8780,161
8832,192
8882,175
8932,174
8983,186
9033,192
9083,182
9134,191
9185,182
9235,206
9285,209
9336,173
9387,178
9437,198
9487,197
9538,209
9588,211
9638,198
9690,203
9740,185
9790,189
9840,155
9891,193
9942,184
9992,208
10043,167
10093,200
10143,165
10194,216
10245,190
10295,202
10346,211
10396,195
10446,190
10498,224
10548,189
10598,204
10649,264
10699,260
10749,277
10801,291
10851,290
10901,276
10952,322
11002,328
11053,377
11104,396
11154,331
11204,390
11255,415
11305,370
11356,356
11407,377
11457,453
11507,499
11558,482
11609,498
11659,508
11710,500
11760,585
11810,465
11862,496
11912,530
11962,376
12013,361
12063,256
12113,207
12165,277
12215,205
12265,193
12316,179
12366,154
12417,164
12468,154
12518,159
12568,182
12619,165
12669,166
12720,193
12771,180
12821,180
12871,174
12922,176
12973,162
13023,165
13074,161
13124,211
13174,171
13225,157
13276,204
13326,161
13377,195
13427,176
13477,186
13529,188
13579,155
13629,190
13680,196
13730,182
13780,197
13832,203
13882,187
13932,235
13983,192
14033,216
14084,237
14135,300
14185,529
14235,363
14286,435
14337,480
14387,409
14438,440
14488,376
14538,446
14589,407
14640,407
14690,489
14741,462
14791,495
14841,572
14893,566
14943,689
14993,593
15044,557
15094,562
15144,704
15196,647
15246,718
15296,709
15347,689
15397,668
15448,540
15499,515
15549,374
15599,348
15650,261
15700,218
15751,297
15802,296
15852,257
15902,230
15953,264
16004,237
16054,219
16105,208
16155,271
16205,256
16257,237
16307,293
16357,237
16408,228
16458,251
16508,248
16560,222
16610,265
16660,218
16711,215
16761,275
16812,214
16863,228
16913,254
16963,229
17014,204
17064,211
17115,182
17166,216
17216,173
17266,159
17317,220
17368,179
17418,214
17469,198
17519,200
17569,205
17620,166
17671,201
17721,182
17772,180
17822,231
17872,173
17924,216
17974,183
18024,223
18075,241
18125,175
18176,234
18227,202
18277,211
18327,200
18378,288
18428,227
18479,298
18530,305
18580,253
18630,281
18681,284
18732,278
18782,358
18833,352
18883,397
18933,387
18984,383
19035,414
19085,473
19136,480
19186,514
19236,518
19288,456
19338,536
19388,562
19439,459
19489,451
19539,428
19591,411
19641,371
19691,327
19742,278
19792,258
19843,258
19894,284
19944,216
19994,211
20045,187
20096,207
20146,231
20197,185
20247,287
20297,198
20348,184
20399,224
20449,180
20500,195
20550,180
20600,196
20652,169
20702,202
20752,172
20803,189
20853,169
20903,186
20955,177
21005,159
21055,204
21106,204
21156,198
21207,234
21258,197
21308,178
21358,179
21409,238
21459,205
21510,232
21561,189
21611,214
21661,217
21712,238
21763,209
21813,228
21864,217
21914,227
21964,250
22016,203
22066,230
22116,211
22167,219
22217,221
22267,239
22319,229
22369,224
22419,242
22470,230
22520,236
22571,218
22622,216
22672,214
22722,209
22773,243
22823,218
22874,218
22925,248
22975,295
23025,302
23076,327
23127,348
23177,346
23228,398
23278,449
23328,442
23379,433
23430,496
23480,465
23531,400
23581,559
23631,520
23683,514
23733,599
23783,478
23834,571
23884,542
23934,389
23986,324
24036,252
24086,279
24137,239
24187,224
24238,235
24289,222
24339,228
24389,206
24440,294
24491,231
24541,210
24592,228
24642,228
24692,191
24743,265
24794,191
24844,212
24895,202
24945,232
24995,185
25047,220
25097,178
25147,190
25198,201
25248,208
25298,190
25350,175
25400,178
25450,175
25501,177
25551,206
25602,169
25653,204
25703,157
25753,211
25804,196
25854,196
25905,184
25956,165
26006,191
26056,163
26107,210
26158,172
26208,215
26259,186
26309,207
26359,182
26411,190
26461,203
26511,176
26562,212
26612,192
26662,200
26714,193
26764,168
26814,212
26865,177
26915,194
26966,186
27017,206
27067,206
27117,266
27168,238
27218,343
27269,313
27320,331
27370,407
27420,497
27471,432
27522,565
27572,509
27623,553
27673,574
27723,565
27774,488
27825,544
27875,571
27926,483
27976,604
28026,712
28078,705
28128,552
28178,746
28229,700
28279,764
28329,673
28381,563
28431,582
28481,425
28532,429
28582,322
28633,348
28684,251
28734,285
28784,242
28835,239
28886,225
28936,280
28987,255
29037,250
29087,224
29138,220
29189,224
29239,198
29290,185
29340,214
29390,216
29442,180
29492,157
29542,217
29593,169
29643,215
29693,196
29745,182
29795,204
29845,191
29896,205
29946,179
29997,182
30048,186
30098,174
30148,181
30199,220
30249,211
30300,204
30351,202
30401,191
30451,242
30502,205
30553,233
30603,225
30654,203
30704,222
30754,213
30806,165
30856,215
30906,190
30957,212
31007,218
31057,204
31109,198
31159,214
31209,175
31260,208
31310,232
31361,176
31412,237
31462,178
31512,213
31563,187
31613,209
31664,191
31715,212
31765,200
31815,226
31866,223
31917,225
31967,215
32018,255
32068,280
32118,310
32169,335
32220,381
32270,450
32321,519
32371,578
32421,581
32473,652
32523,630
32573,629
32624,531
32674,670
32724,743
32776,831
32826,662
32876,695
32927,777
32977,924
33028,922
33079,932
33129,942
33179,1023
33230,1023
33281,1020
33331,864
33382,845
33432,722
33482,1023
33533,1023
33584,702
33635,517
33685,379
33735,358
33786,250
33837,271
33887,213
33938,252
33988,199
34038,240
34089,244
34140,242
34190,327
34241,231
34291,200
34341,241
34393,187
34443,212
34493,210
34544,201
34594,182
34644,209
34696,188
34746,202
34796,199
34847,206
34897,203
34948,176
34999,191
35049,176
35099,218
35150,197
35201,254
35251,188
35302,174
35352,232
35402,178
35453,208
35504,187
35554,178
35605,200
35655,183
35705,207
35757,191
35807,229
35857,206
35908,223
35958,218
36008,224
36060,260
36110,245
36160,230
36211,262
36261,275
36312,280
36363,264
36413,260
36463,321
36514,337
36564,281
36615,314
36666,350
36716,383
36766,424
36817,408
36868,492
36918,431
36969,432
37019,500
37069,420
37121,462
37171,515
37221,544
37272,567
37322,622
37372,644
37424,556
37474,641
37524,842
37575,558
37625,502
37676,429
37727,340
37777,345
37827,289
37878,278
37928,247
37979,309
38030,267
38080,238
38130,231
38181,193
38232,188
38282,225
38333,223
38383,268
38433,213
38484,209
38535,205
38585,246
38636,209
38686,243
38736,211
38788,187
38838,182
38888,181
38939,196
38989,195
39040,199
39091,193
39141,211
39191,179
39242,182
39292,189
39343,202
39394,191
39444,232
39494,205
39545,208
39596,207
39646,210
39697,218
39747,208
39797,214
39848,226
39899,217
39949,293
40000,216
40050,244
40100,284
40152,265
40202,282
40252,339
40303,281
40353,379
40403,338
40455,349
40505,344
40555,435
40606,374
40656,478
40707,492
40758,488
40808,494
40858,527
40909,555
40960,548
41010,633
41061,716
41111,792
41161,863
41212,748
41263,808
41313,898
41364,712
41414,837
41464,705
41516,468
41566,589
41616,470
41667,396
41717,326
41767,247
41819,288
41869,198
41919,203
41970,230
42020,232
42071,208
42122,175
42172,247
42222,181
42273,237
42323,196
42374,264
42425,188
42475,205
42525,182
42576,195
42627,192
42677,175
42728,183
42778,187
42828,171
42880,195
42930,200
42980,194
43031,202
43081,218
43131,305
43183,237
43233,323
43283,249
43334,271
43384,289
43435,275
43486,280
43536,235
43586,247
43637,342
43687,334
43738,297
43789,310
43839,270
43889,351
43940,411
43991,386
44041,378
44092,476
44142,484
44192,506
44243,508
44294,446
44344,481
44395,472
44445,676
44495,664
44547,751
44597,713
44647,559
44698,533
44748,404
44798,396
44850,310
44900,333
44950,280
45001,281
45051,258
45102,236
45153,254
45203,248
45253,217
45304,235
45355,286
45405,221
45456,278
45506,253
45556,266
45607,245
45658,274
45708,249
45759,246
45809,235
45859,211
45911,258
45961,229
46011,218
46062,228
46112,236
46162,206
46214,244
46264,222
46314,211
46365,244
46415,229
46466,222
46517,295
46567,251
46617,266
46668,265
46718,230
46769,214
46820,247
46870,236
46920,310
46971,258
47022,213
47072,274
47123,256
47173,278
47223,303
47275,343
47325,424
47375,318
47426,379
47476,368
47526,493
47578,441
47628,410
47678,479
47729,443
47779,486
47831,516
47881,585
47931,505
47982,680
48032,636
48082,735
48134,797
48184,650
48234,519
48285,392
48335,522
48386,314
48437,391
48487,261
48537,216
48588,236
48638,184
48689,260
48740,224
48790,220
48840,207
48891,257
48942,238
48992,209
49043,219
49093,218
49143,190
49195,205
49245,183
49295,237
49346,239
49396,234
49446,204
49498,234
49548,206
49598,209
49649,221
49699,180
49750,208
49801,188
49851,215
49901,188
49952,202
50002,202
50053,246
50104,242
50154,272
50204,262
50255,297
50306,306
50356,311
50407,432
50457,454
50507,416
50558,511
50609,565
50659,591
50710,605
50760,691
50810,564
50862,650
50912,776
50962,698
51013,649
51063,607
51113,654
51165,693
51215,830
51265,783
51316,923
51366,919
51417,742
51468,822
51518,720
51568,526
51619,604
51670,422
51720,352
51771,287
51821,316
51871,296
51922,237
51973,244
52023,316
52074,249
52124,201
52174,236
52226,263
52276,243
52326,237
52377,217
52427,241
52477,274
52529,259
52579,235
52629,270
52680,241
52730,248
52781,248
52832,241
52882,229
52932,233
52983,204
53033,226
53084,224
53135,268
53185,236
53235,342
53286,264
53337,253
53387,271
53438,279
53488,246
53538,273
53590,340
53640,343
53690,329
53741,499
53791,564
53841,758
53893,552
53943,541
53993,524
54044,618
54094,549
54145,682
54196,713
54246,852
54296,757
54347,684
54397,518
54448,548
54499,353
54549,458
54599,303
54650,339
54701,312
54751,258
54802,252
54852,273
54902,224
54953,213
55004,222
55054,244
55105,248
55155,301
55206,273
55257,203
55307,271
55358,231
55408,296
55458,265
55510,295
55560,270
55610,257
55661,311
55711,291
55761,243
55813,229
55863,220
55913,233
55964,213
56014,225
56065,201
56116,247
56166,258
56216,213
56267,238
56317,213
56368,258
56419,190
56469,173
56519,216
56570,193
56621,178
56671,186
56722,189
56772,236
56822,209
56873,266
56924,230
56974,241
57025,263
57075,282
57125,295
57177,305
57227,291
57277,290
57328,360
57378,354
57428,328
57480,372
57530,410
57580,357
57631,460
57681,482
57732,378
57783,450
57833,417
57883,482
57934,488
57985,651
58035,625
58086,522
58136,535
58186,369
58237,384
58288,430
58338,357
58389,359
58439,299
58489,324
58541,255
58591,294
58641,214
58692,290
58742,223
58792,240
58844,206
58894,230
58944,272
58995,201
59045,220
59096,183
59147,190
59197,190
59247,202
59298,215
59348,224
59399,196
59450,205
59500,185
59550,206
59601,197
59652,204
59702,188
59753,177
59803,169
59853,226
59905,182
59955,172
60005,176
60056,168
60106,219
60156,203
60208,228
60258,231
60308,218
60359,198
60409,207
60460,207
60511,239
60561,228
60611,214
60662,267
60712,274
60763,202
60814,272
60864,285
60914,287
60965,304
61016,263
61066,299
61117,314
61167,320
61217,352
61268,403
61319,344
61369,354
61420,311
61470,353
61520,474
61572,485
61622,537
61672,606
61723,598
61773,551
61824,538
61875,624
61925,556
61975,570
62026,520
62076,411
62127,388
62178,336
62228,365
62279,296
62329,253
62380,279
62431,214
62481,259
62531,187
62582,303
62632,211
62683,232
62734,210
62784,244
62834,186
62885,230
62936,189
62986,225
63037,214
63087,199
63137,210
63188,182
63239,208
63289,200
63340,231
63390,201
63440,184
63492,223
63542,189
63592,253
63643,247
63693,224
63744,218
63795,223
63845,173
63895,226
63946,187
63996,234
64047,189
64098,232
64148,195
64198,218
64249,244
64300,220
64350,341
64401,429
64451,376
64501,374
64552,399
64603,345
64653,364
64704,414
64754,468
64804,496
64856,456
64906,491
64956,546
65007,501
65057,447
65107,550
65159,491
65209,529
65259,553
65310,436
65360,560
65411,597
65462,746
65512,679
65562,625
65613,684
65664,620
65714,575
65765,509
65815,435
65865,449
65916,376
65967,356
66017,286
66068,302
66118,255
66168,324
66220,234
66270,310
66320,205
66371,334
66421,218
66471,298
66523,240
66573,251
66623,253
66674,254
66724,226
66775,267
66826,212
66876,240
66926,218
66977,322
67027,241
67078,255
67129,184
67179,180
67229,196
67280,214
67331,240
67381,240
67432,212
67482,200
67532,169
67584,179
67634,205
67684,188
67735,206
67785,213
67835,176
67887,198
67937,209
67987,207
68038,218
68088,191
68139,195
68190,192
68240,226
68290,243
68341,215
68391,257
68442,227
68493,242
68543,236
68593,213
68644,237
68695,237
68745,247
68796,236
68846,272
68896,258
68947,208
68998,267
69048,224
69099,257
69149,276
69199,288
69251,286
69301,308
69351,310
69402,264
69452,305
69502,325
69554,297
69604,378
69654,372
69705,402
69755,467
69806,533
69857,446
69907,428
69957,413
70008,457
70059,417
70109,403
70160,422
70210,406
70260,317
70311,329
70362,303
70412,239
70463,343
70513,295
70563,303
70615,281
70665,266
70715,254
70766,298
70816,226
70866,278
70918,238
70968,197
71018,193
71069,222
71119,228
71170,187
71221,249
71271,200
71321,187
71372,218
71422,180
71473,172
71524,171
71574,198
71624,170
71675,225
71726,171
71776,214
71827,211
71877,186
71927,200
71979,213
72029,216
72080,208
72130,221
72180,196
72231,201
72282,200
72332,175
72383,251
72433,193
72483,210
72535,205
72585,198
72635,203
72686,207
72736,168
72786,207
72838,219
72888,210
72938,194
72989,206
73039,214
73090,265
73141,250
73191,215
73241,233
73292,278
73342,243
73393,261
73444,266
73494,261
73544,254
73595,316
73646,355
73696,274
73747,376
73797,492
73847,470
73899,457
73949,482
73999,468
74050,425
74100,529
74150,543
74202,536
74252,528
74302,484
74353,545
74403,494
74454,465
74505,405
74555,362
74605,327
74656,372
74706,292
74757,322
74808,246
74858,291
74908,238
74959,220
75010,234
75060,270
75111,256
75161,224
75211,232
75262,229
75313,233
75363,198
75414,224
75464,198
75514,189
75566,208
75616,285
75666,229
75717,255
75767,212
75817,293
75869,219
75919,238
75969,192
76020,249
76070,197
76121,184
76172,208
76222,215
76272,200
76323,236
76374,245
76424,241
76475,237
76525,235
76575,241
76626,175
76677,240
76727,207
76778,182
76828,222
76878,198
76930,192
76980,223
77030,196
77081,210
77131,196
77182,190
77233,232
77283,221
77334,246
77384,242
77434,188
77486,250
77536,255
77586,223
77637,271
77687,258
77737,266
77789,266
77839,291
77889,292
77940,284
77990,306
78041,286
78092,370
78142,308
78192,379
78243,372
78294,357
78344,458
78395,491
78445,475
78495,508
78546,518
78597,546
78647,549
78698,573
78748,523
78798,639
78850,607
78900,566
78950,541
79001,516
79051,484
79101,362
79153,417
79203,298
79253,338
79304,218
79354,287
79405,220
79456,300
79506,212
79556,265
79607,230
79657,222
79708,250
79759,206
79809,264
79859,248
79910,267
79961,254
80011,196
80062,260
80112,207
80162,226
80214,237
80264,234
80314,238
80365,263
80415,240
80465,205
80517,191
80567,227
80617,179
80668,211
80718,224
80769,212
80820,172
80870,189
80920,224
80971,196
81021,250
81072,202
81123,213
81173,232
81223,228
81274,208
81325,207
81375,177
81426,231
81476,202
81526,191
81577,197
81628,212
81678,219
81729,209
81779,206
81829,214
81881,247
81931,235
81981,282
82032,212
82082,249
82132,290
82184,259
82234,284
82284,293
82335,236
82385,308
82436,340
82487,325
82537,386
82587,349
82638,366
82689,383
82739,389
82790,387
82840,373
82890,387
82941,404
82992,410
83042,411
83093,492
83143,534
83193,510
83245,695
83295,560
83345,839
83396,796
83446,601
83496,525
83548,438
83598,341
83648,337
83699,216
83749,290
83800,244
83851,225
83901,264
83951,247
84002,244
84052,259
84103,241
84154,224
84204,212
84254,234
84305,248
84356,225
84406,252
84457,213
84507,304
84557,252
84609,214
84659,300
84709,233
84760,206
84810,222
84860,226
84912,192
84962,291
85012,210
85063,238
85113,270
85164,225
85215,191
85265,244
85315,248
85366,251
85416,215
85467,243
85518,224
85568,221
85618,218
85669,211
85720,203
85770,218
85821,254
85871,230
85921,223
85972,230
86023,262
86073,209
86124,212
86174,202
86224,274
86276,235
86326,235
86376,208
86427,220
86477,239
86528,214
86579,292
86629,347
86679,295
86730,292
86780,277
86831,274
86882,289
86932,263
86982,309
87033,380
87084,290
87134,286
87185,363
87235,335
87286,395
87336,393
87387,384
87438,358
87488,420
87538,423
87589,419
87640,421
87690,420
87741,497
87791,490
87841,479
87892,483
87943,449
87993,416
88044,286
88094,291
88144,233
88196,311
88246,236
88296,276
88347,194
88397,262
88448,195
88499,211
88549,291
88599,207
88650,213
88700,236
88751,185
88802,254
88852,226
88902,245
88953,210
89004,275
89054,193
89105,229
89155,212
89205,207
89256,171
89307,223
89357,185
89408,176
89458,218
89508,252
89560,211
89610,195
89660,193
89711,209
89761,192
89811,166
89863,254
89913,211
89963,253
90014,179
90064,206
90115,171
90166,194
90216,225
90266,196
90317,184
90368,186
90418,196
90469,216
90519,205
90569,196
90620,212
90671,182
90721,209
90772,209
90822,193
90872,224
90924,215
90974,221
91024,238
91075,246
91125,274
91175,270
91227,274
91277,394
91327,362
91378,393
91428,422
91479,341
91530,324
91580,396
91630,429
91681,537
91731,600
91782,566
91833,684
91883,592
91933,546
91984,609
92035,677
92085,650
92136,980
92186,1023
92236,898
92288,983
92338,1023
92388,1023
92439,794
92489,892
92540,729
92591,642
92641,497
92692,429
92742,300
92792,335
92844,206
92894,268
92944,249
92995,262
93045,254
93095,252
93147,234
93197,304
93247,214
93298,283
93348,227
93399,293
93450,241
93500,239
93550,284
93601,293
93651,237
93702,254
93753,225
93803,224
93853,262
93904,240
93955,186
94005,263
94056,251
94106,225
94156,250
94208,199
94258,200
94308,198
94359,178
94409,226
94459,213
94511,262
94561,251
94611,240
94662,271
94712,302
94763,226
94814,220
94864,280
94914,295
94965,226
95015,267
95066,248
95117,240
95167,198
95217,233
95268,275
95319,301
95369,262
95420,300
95470,334
95520,310
95571,297
95622,334
95672,308
95723,296
95773,321
95823,365
95875,383
95925,438
95975,433
96026,400
96076,433
96126,383
96178,413
96228,430
96278,434
96329,373
96379,350
96430,353
96481,270
96531,439
96581,301
96632,351
96683,230
96733,278
96784,276
96834,250
96884,256
96935,274
96986,220
97036,269
97087,212
97137,230
97187,208
97239,242
97289,192
97339,228
97390,210
97440,208
97490,250
97542,241
97592,207
97642,234
97693,181
97743,208
97794,209
97845,264
97895,216
97945,227
97996,202
98046,185
98097,231
98148,176
98198,216
98248,214
98299,195
98350,175
98400,198
98451,187
98501,158
98551,195
98603,161
98653,198
98703,167
98754,180
98804,187
98855,161
98906,168
98956,228
99007,230
99057,200
99107,196
99159,172
99209,195
99259,195
99310,183
99360,170
99410,171
99462,160
99512,169
99562,194
99613,207
99663,181
99714,211
99765,163

