time,filtered_emg,gesture
0.0,-1,0
0.05,-1,0
0.1,-1,0
0.15,-1,0
0.2,3,0
0.251,4,0
0.302,6,0
0.352,8,0
0.402,8,0
0.453,9,0
0.503,10,0
0.553,10,0
0.604,10,0
0.655,9,0
0.705,9,0
0.755,10,0
0.805,10,0
0.857,8,0
0.907,9,0
0.957,9,0
1.007,10,0
1.058,9,0
1.108,11,0
1.159,10,0
1.21,12,0
1.26,11,0
1.31,11,0
1.36,10,0
1.412,12,0
1.462,13,0
1.512,13,0
1.563,13,0
1.613,16,0
1.664,18,0
1.715,18,0
1.765,18,0
1.815,18,0
1.865,19,0
1.916,20,0
1.967,18,0
2.017,18,0
2.068,18,0
2.118,17,0
2.168,17,0
2.219,17,0
2.27,20,0
2.32,18,0
2.37,19,0
2.421,15,0
2.471,16,0
2.522,14,0
2.572,14,0
2.623,13,0
2.673,11,0
2.723,11,0
2.775,11,0
2.825,11,0
2.875,15,0
2.926,15,0
2.976,15,0
3.026,15,0
3.077,18,0
3.128,19,0
3.178,19,0
3.228,18,0
3.279,17,0
3.33,19,0
3.38,17,0
3.43,20,0
3.481,21,0
3.531,22,0
3.581,23,0
3.633,21,0
3.683,20,0
3.733,20,0
3.783,19,0
3.834,20,0
3.885,19,0
3.935,18,0
3.986,17,0
4.036,17,0
4.086,16,0
4.137,18,0
4.188,20,0
4.238,20,0
4.288,21,0
4.339,23,0
4.389,27,0
4.44,36,1
4.491,44,1
4.541,55,1
4.591,58,1
4.641,56,1
4.692,59,1
4.743,61,1
4.793,58,1
4.844,55,1
4.894,50,1
4.944,42,1
4.995,34,1
5.046,25,0
5.096,22,0
5.146,21,0
5.197,16,0
5.248,17,0
5.298,17,0
5.349,16,0
5.399,18,0
5.449,17,0
5.499,16,0
5.551,13,0
5.601,11,0
5.651,13,0
5.702,13,0
5.752,11,0
5.803,13,0
5.853,16,0
5.904,17,0
5.954,19,0
6.004,23,0
6.055,27,0
6.106,30,0
6.156,28,0
6.206,29,0
6.257,29,0
6.307,28,0
6.358,27,0
6.409,23,0
6.459,24,0
6.509,24,0
6.56,23,0
6.61,21,0
6.661,22,0
6.711,24,0
6.762,23,0
6.812,21,0
6.862,22,0
6.914,23,0
6.964,23,0
7.014,20,0
7.064,20,0
7.115,20,0
7.165,21,0
7.216,22,0
7.267,24,0
7.317,31,0
7.367,31,0
7.417,33,1
7.469,31,0
7.519,28,0
7.569,28,0
7.62,28,0
7.67,25,0
7.72,26,0
7.772,22,0
7.822,16,0
7.872,15,0
7.922,12,0
7.973,12,0
8.024,14,0
8.074,15,0
8.125,14,0
8.175,15,0
8.225,12,0
8.275,14,0
8.327,13,0
8.377,14,0
8.427,13,0
8.478,12,0
8.528,11,0
8.579,10,0
8.629,10,0
8.68,9,0
8.73,9,0
8.78,9,0
8.832,14,0
8.882,15,0
8.932,15,0
8.983,15,0
9.033,15,0
9.083,15,0
9.134,15,0
9.185,16,0
9.235,16,0
9.285,16,0
9.336,12,0
9.387,14,0
9.437,14,0
9.487,14,0
9.538,15,0
9.588,14,0
9.638,13,0
9.69,14,0
9.74,20,0
9.79,22,0
9.84,27,0
9.891,30,0
9.942,32,1
9.992,40,1
10.043,43,1
10.093,49,1
10.143,64,1
10.194,64,1
10.245,61,1
10.295,65,1
10.346,74,1
10.396,86,1
10.446,105,1
10.498,115,1
10.548,125,1
10.598,131,1
10.649,127,1
10.699,129,1
10.749,127,1
10.801,117,1
10.851,106,1
10.901,89,1
10.952,71,1
11.002,53,1
11.053,41,1
11.104,31,0
11.154,24,0
11.204,22,0
11.255,24,0
11.305,24,0
11.356,23,0
11.407,23,0
11.457,21,0
11.507,23,0
11.558,25,0
11.609,27,0
11.659,25,0
11.71,25,0
11.76,24,0
11.81,27,0
11.862,25,0
11.912,26,0
11.962,26,0
12.013,24,0
12.063,21,0
12.113,18,0
12.165,18,0
12.215,17,0
12.265,18,0
12.316,16,0
12.366,16,0
12.417,16,0
12.468,17,0
12.518,17,0
12.568,19,0
12.619,20,0
12.669,20,0
12.72,18,0
12.771,17,0
12.821,17,0
12.871,16,0
12.922,15,0
12.973,15,0
13.023,14,0
13.074,13,0
13.124,13,0
13.174,14,0
13.225,14,0
13.276,17,0
13.326,18,0
13.377,18,0
13.427,18,0
13.477,19,0
13.529,18,0
13.579,15,0
13.629,14,0
13.68,15,0
13.73,15,0
13.78,12,0
13.832,11,0
13.882,13,0
13.932,13,0
13.983,12,0
14.033,13,0
14.084,14,0
14.135,12,0
14.185,11,0
14.235,11,0
14.286,12,0
14.337,11,0
14.387,9,0
14.438,9,0
14.488,7,0
14.538,8,0
14.589,9,0
14.64,9,0
14.69,9,0
14.741,8,0
14.791,8,0
14.841,7,0
14.893,8,0
14.943,7,0
14.993,7,0
15.044,6,0
15.094,6,0
15.144,6,0
15.196,7,0
15.246,7,0
15.296,8,0
15.347,9,0
15.397,10,0
15.448,11,0
15.499,12,0
15.549,11,0
15.599,10,0
15.65,11,0
15.7,10,0
15.751,12,0
15.802,11,0
15.852,10,0
15.902,8,0
15.953,8,0
16.004,10,0
16.054,14,0
16.105,18,0
16.155,22,0
16.205,26,0
16.257,27,0
16.307,31,0
16.357,31,0
16.408,33,1
16.458,35,1
16.508,32,1
16.56,34,1
16.61,37,1
16.66,44,1
16.711,51,1
16.761,51,1
16.812,48,1
16.863,48,1
16.913,46,1
16.963,46,1
17.014,47,1
17.064,47,1
17.115,41,1
17.166,30,0
17.216,20,0
17.266,17,0
17.317,16,0
17.368,17,0
17.418,18,0
17.469,16,0
17.519,16,0
17.569,16,0
17.62,17,0
17.671,17,0
17.721,19,0
17.772,19,0
17.822,19,0
17.872,19,0
17.924,18,0
17.974,19,0
18.024,18,0
18.075,14,0
18.125,11,0
18.176,11,0
18.227,10,0
18.277,12,0
18.327,14,0
18.378,15,0
18.428,17,0
18.479,17,0
18.53,16,0
18.58,17,0
18.63,17,0
18.681,18,0
18.732,19,0
18.782,19,0
18.833,17,0
18.883,15,0
18.933,17,0
18.984,20,0
19.035,23,0
19.085,26,0
19.136,25,0
19.186,25,0
19.236,25,0
19.288,25,0
19.338,29,0
19.388,30,0
19.439,28,0
19.489,29,0
19.539,28,0
19.591,25,0
19.641,28,0
19.691,28,0
19.742,26,0
19.792,26,0
19.843,23,0
19.894,23,0
19.944,23,0
19.994,21,0
20.045,20,0
20.096,24,0
20.146,23,0
20.197,24,0
20.247,28,0
20.297,35,1
20.348,47,1
20.399,57,1
20.449,76,1
20.5,94,1
20.55,105,1
20.6,114,1
20.652,118,1
20.702,126,1
20.752,121,1
20.803,122,1
20.853,120,1
20.903,113,1
20.955,92,1
21.005,80,1
21.055,69,1
21.106,58,1
21.156,66,1
21.207,70,1
21.258,85,1
21.308,82,1
21.358,87,1
21.409,103,1
21.459,119,1
21.51,121,1
21.561,130,1
21.611,136,1
21.661,128,1
21.712,114,1
21.763,100,1
21.813,94,1
21.864,80,1
21.914,64,1
21.964,49,1
22.016,39,1
22.066,29,0
22.116,20,0
22.167,15,0
22.217,14,0
22.267,13,0
22.319,13,0
22.369,11,0
22.419,9,0
22.47,8,0
22.52,6,0
22.571,10,0
22.622,11,0
22.672,12,0
22.722,12,0
22.773,15,0
22.823,17,0
22.874,16,0
22.925,17,0
22.975,20,0
23.025,23,0
23.076,23,0
23.127,25,0
23.177,25,0
23.228,26,0
23.278,24,0
23.328,23,0
23.379,24,0
23.43,23,0
23.48,22,0
23.531,19,0
23.581,16,0
23.631,14,0
23.683,14,0
23.733,16,0
23.783,15,0
23.834,16,0
23.884,15,0
23.934,15,0
23.986,14,0
24.036,15,0
24.086,17,0
24.137,16,0
24.187,14,0
24.238,13,0
24.289,14,0
24.339,14,0
24.389,15,0
24.44,17,0
24.491,19,0
24.541,18,0
24.592,16,0
24.642,17,0
24.692,17,0
24.743,17,0
24.794,17,0
24.844,15,0
24.895,15,0
24.945,12,0
24.995,10,0
25.047,11,0
25.097,13,0
25.147,13,0
25.198,13,0
25.248,11,0
25.298,11,0
25.35,13,0
25.4,13,0
25.45,14,0
25.501,14,0
25.551,14,0
25.602,13,0
25.653,14,0
25.703,16,0
25.753,18,0
25.804,18,0
25.854,16,0
25.905,17,0
25.956,16,0
26.006,15,0
26.056,14,0
26.107,12,0
26.158,11,0
26.208,8,0
26.259,8,0
26.309,10,0
26.359,11,0
26.411,10,0
26.461,9,0
26.511,11,0
26.562,12,0
26.612,13,0
26.662,13,0
26.714,14,0
26.764,11,0
26.814,9,0
26.865,7,0
26.915,7,0
26.966,8,0
27.017,6,0
27.067,8,0
27.117,9,0
27.168,10,0
27.218,11,0
27.269,13,0
27.32,14,0
27.37,16,0
27.42,16,0
27.471,16,0
27.522,16,0
27.572,13,0
27.623,11,0
27.673,10,0
27.723,9,0
27.774,8,0
27.825,9,0
27.875,8,0
27.926,11,0
27.976,13,0
28.026,15,0
28.078,17,0
28.128,18,0
28.178,18,0
28.229,17,0
28.279,16,0
28.329,15,0
28.381,13,0
28.431,11,0
28.481,8,0
28.532,7,0
28.582,6,0
28.633,5,0
28.684,6,0
28.734,8,0
28.784,12,0
28.835,17,0
28.886,24,0
28.936,34,1
28.987,46,1
29.037,61,1
29.087,79,1
29.138,98,1
29.189,130,1
29.239,155,1
29.29,179,1
29.34,198,1
29.391,213,1
29.442,219,1
29.492,219,1
29.543,211,1
29.593,204,1
29.643,196,1
29.694,177,1
29.745,167,1
29.795,161,1
29.846,148,1
29.896,137,1
29.946,123,1
29.998,118,1
30.048,121,1
30.098,109,1
30.149,114,1
30.199,109,1
30.249,98,1
30.301,82,1
30.351,81,1
30.401,82,1
30.452,87,1
30.502,93,1
30.553,93,1
30.604,93,1
30.654,80,1
30.704,75,1
30.755,69,1
30.806,67,1
30.856,60,1
30.907,48,1
30.957,47,1
31.007,37,1
31.058,31,0
31.109,31,0
31.159,37,1
31.21,42,1
31.26,57,1
31.31,63,1
31.362,77,1
31.412,96,1
31.462,107,1
31.513,113,1
31.563,119,1
31.613,127,1
31.665,127,1
31.715,120,1
31.765,105,1
31.816,96,1
31.866,80,1
31.917,63,1
31.968,47,1
32.018,37,1
32.068,27,0
32.119,20,0
32.169,13,0
32.22,12,0
32.271,14,0
32.321,15,0
32.371,16,0
32.422,18,0
32.473,20,0
32.523,20,0
32.574,19,0
32.624,19,0
32.674,17,0
32.726,20,0
32.776,19,0
32.826,18,0
32.877,14,0
32.927,11,0
32.977,10,0
33.029,10,0
33.079,12,0
33.129,11,0
33.18,13,0
33.23,13,0
33.281,14,0
33.332,15,0
33.382,16,0
33.432,16,0
33.483,16,0
33.533,18,0
33.584,17,0
33.635,16,0
33.685,16,0
33.735,13,0
33.786,12,0
33.837,10,0
33.887,9,0
33.938,10,0
33.988,11,0
34.038,9,0
34.089,7,0
34.14,7,0
34.19,7,0
34.241,7,0
34.291,8,0
34.341,8,0
34.393,9,0
34.443,10,0
34.493,9,0
34.544,10,0
34.594,11,0
34.644,12,0
34.696,11,0
34.746,10,0
34.796,9,0
34.847,9,0
34.897,9,0
34.948,9,0
34.999,10,0
35.049,9,0
35.099,8,0
35.15,8,0
35.201,8,0
35.251,8,0
35.302,8,0
35.352,9,0
35.402,9,0
35.453,9,0
35.504,8,0
35.554,9,0
35.605,11,0
35.655,16,0
35.705,20,0
35.757,26,0
35.807,31,0
35.857,36,1
35.908,39,1
35.958,43,1
36.008,46,1
36.06,49,1
36.11,53,1
36.16,52,1
36.211,47,1
36.261,41,1
36.312,39,1
36.363,32,1
36.413,30,0
36.463,26,0
36.514,28,0
36.564,31,0
36.615,34,1
36.666,41,1
36.716,49,1
36.766,59,1
36.817,62,1
36.868,65,1
36.918,66,1
36.969,69,1
37.019,66,1
37.069,62,1
37.121,59,1
37.171,51,1
37.221,45,1
37.272,38,1
37.322,32,1
37.372,29,0
37.424,28,0
37.474,24,0
37.524,23,0
37.575,21,0
37.625,16,0
37.676,14,0
37.727,12,0
37.777,11,0
37.827,11,0
37.878,11,0
37.928,11,0
37.979,13,0
38.03,13,0
38.08,15,0
38.131,14,0
38.181,15,0
38.232,16,0
38.283,18,0
38.333,21,0
38.383,22,0
38.434,27,0
38.484,29,0
38.535,33,1
38.586,31,0
38.636,33,1
38.686,34,1
38.737,38,1
38.788,37,1
38.838,38,1
38.889,40,1
38.939,38,1
38.989,37,1
39.041,32,1
39.091,33,1
39.141,33,1
39.192,32,1
39.242,31,0
39.292,32,1
39.344,29,0
39.394,32,1
39.444,37,1
39.495,37,1
39.545,43,1
39.596,43,1
39.647,45,1
39.697,48,1
39.747,50,1
39.798,54,1
39.848,55,1
39.899,51,1
39.95,48,1
40.0,48,1
40.05,45,1
40.101,44,1
40.152,41,1
40.202,35,1
40.253,30,0
40.303,24,0
40.353,21,0
40.404,19,0
40.455,16,0
40.505,15,0
40.556,13,0
40.606,13,0
40.656,12,0
40.708,12,0
40.758,11,0
40.808,12,0
40.859,11,0
40.909,11,0
40.96,10,0
41.011,9,0
41.061,8,0
41.111,7,0
41.162,8,0
41.212,8,0
41.263,7,0
41.314,8,0
41.364,8,0
41.414,8,0
41.465,9,0
41.516,8,0
41.566,9,0
41.617,11,0
41.667,10,0
41.717,10,0
41.768,11,0
41.819,11,0
41.869,13,0
41.92,13,0
41.97,14,0
42.02,14,0
42.072,14,0
42.122,14,0
42.172,17,0
42.223,19,0
42.273,19,0
42.323,18,0
42.375,17,0
42.425,16,0
42.475,15,0
42.526,16,0
42.576,15,0
42.627,15,0
42.678,13,0
42.728,12,0
42.778,12,0
42.829,11,0
42.88,12,0
42.93,13,0
42.981,12,0
43.031,13,0
43.081,13,0
43.132,11,0
43.183,11,0
43.233,10,0
43.284,8,0
43.334,8,0
43.384,8,0
43.436,8,0
43.486,8,0
43.536,7,0
43.587,7,0
43.637,9,0
43.687,10,0
43.739,11,0
43.789,12,0
43.839,12,0
43.89,11,0
43.94,11,0
43.991,11,0
44.042,10,0
44.092,9,0
44.142,10,0
44.193,10,0
44.243,7,0
44.294,8,0
44.345,9,0
44.395,9,0
44.445,9,0
44.496,10,0
44.547,11,0
44.597,12,0
44.648,10,0
44.698,11,0
44.748,13,0
44.8,16,0
44.85,18,0
44.9,23,0
44.951,27,0
45.001,33,1
45.051,37,1
45.103,42,1
45.153,47,1
45.203,54,1
45.254,62,1
45.304,70,1
45.355,78,1
45.406,86,1
45.456,93,1
45.506,95,1
45.557,99,1
45.607,101,1
45.658,103,1
45.709,100,1
45.759,90,1
45.809,79,1
45.86,67,1
45.911,58,1
45.961,53,1
46.012,49,1
46.062,40,1
46.112,38,1
46.163,37,1
46.214,32,1
46.264,40,1
46.315,49,1
46.365,56,1
46.415,55,1
46.467,63,1
46.517,68,1
46.567,72,1
46.618,75,1
46.668,80,1
46.718,88,1
46.77,83,1
46.82,77,1
46.87,75,1
46.921,75,1
46.971,68,1
47.022,66,1
47.073,73,1
47.123,72,1
47.173,68,1
47.224,61,1
47.275,64,1
47.325,69,1
47.376,72,1
47.426,76,1
47.476,79,1
47.527,80,1
47.578,73,1
47.628,71,1
47.679,65,1
47.729,66,1
47.779,63,1
47.831,58,1
47.881,53,1
47.931,48,1
47.982,40,1
48.032,33,1
48.082,30,0
48.134,25,0
48.184,25,0
48.234,22,0
48.285,20,0
48.335,18,0
48.386,17,0
48.437,15,0
48.487,14,0
48.537,13,0
48.588,14,0
48.638,14,0
48.689,13,0
48.74,14,0
48.79,15,0
48.84,15,0
48.891,13,0
48.942,14,0
48.992,14,0
49.043,12,0
49.093,11,0
49.143,13,0
49.195,15,0
49.245,15,0
49.295,13,0
49.346,14,0
49.396,16,0
49.446,13,0
49.498,14,0
49.548,13,0
49.598,12,0
49.649,11,0
49.699,10,0
49.75,11,0
49.801,12,0
49.851,11,0
49.901,10,0
49.952,12,0
50.002,14,0
50.053,16,0
50.104,17,0
50.154,17,0
50.204,18,0
50.255,16,0
50.306,16,0
50.356,16,0
50.407,16,0
50.457,14,0
50.507,13,0
50.558,12,0
50.609,12,0
50.659,10,0
50.71,8,0
50.76,10,0
50.81,9,0
50.862,8,0
50.912,8,0
50.962,8,0
51.013,8,0
51.063,7,0
51.113,8,0
51.165,9,0
51.215,9,0
51.266,8,0
51.316,7,0
51.366,8,0
51.418,9,0
51.468,10,0
51.518,12,0
51.569,11,0
51.619,10,0
51.67,9,0
51.721,11,0
51.771,12,0
51.821,14,0
51.872,13,0
51.922,14,0
51.973,14,0
52.024,15,0
52.074,15,0
52.124,18,0
52.175,20,0
52.226,21,0
52.276,23,0
52.327,20,0
52.377,21,0
52.427,20,0
52.478,20,0
52.529,17,0
52.579,17,0
52.63,14,0
52.68,12,0
52.73,9,0
52.782,8,0
52.832,8,0
52.882,8,0
52.933,7,0
52.983,8,0
53.033,8,0
53.085,10,0
53.135,14,0
53.185,15,0
53.236,22,0
53.286,30,0
53.337,48,1
53.388,72,1
53.438,97,1
53.488,123,1
53.539,152,1
53.59,162,1
53.64,163,1
53.691,162,1
53.741,166,1
53.791,160,1
53.842,158,1
53.893,152,1
53.943,135,1
53.994,118,1
54.044,91,1
54.094,83,1
54.146,82,1
54.196,84,1
54.246,78,1
54.297,80,1
54.347,67,1
54.397,49,1
54.449,44,1
54.499,43,1
54.549,49,1
54.6,50,1
54.65,48,1
54.701,54,1
54.752,56,1
54.802,56,1
54.852,59,1
54.903,66,1
54.953,70,1
55.004,68,1
55.055,65,1
55.105,63,1
55.155,66,1
55.206,61,1
55.257,56,1
55.307,50,1
55.358,47,1
55.408,42,1
55.458,35,1
55.51,28,0
55.56,24,0
55.61,22,0
55.661,20,0
55.711,17,0
55.761,16,0
55.813,16,0
55.863,16,0
55.913,14,0
55.964,13,0
56.014,13,0
56.065,12,0
56.116,10,0
56.166,9,0
56.216,10,0
56.267,11,0
56.317,12,0
56.368,10,0
56.419,11,0
56.469,11,0
56.519,11,0
56.57,11,0
56.621,11,0
56.671,11,0
56.722,11,0
56.772,11,0
56.822,11,0
56.873,11,0
56.924,9,0
56.974,10,0
57.025,9,0
57.075,10,0
57.125,10,0
57.177,9,0
57.227,9,0
57.277,8,0
57.328,8,0
57.378,9,0
57.428,10,0
57.48,10,0
57.53,11,0
57.58,10,0
57.631,11,0
57.681,11,0
57.732,11,0
57.783,11,0
57.833,9,0
57.883,9,0
57.934,8,0
57.985,7,0
58.035,6,0
58.086,6,0
58.136,6,0
58.186,5,0
58.237,5,0
58.288,5,0
58.338,5,0
58.389,5,0
58.439,6,0
58.489,6,0
58.541,6,0
58.591,6,0
58.641,5,0
58.692,6,0
58.742,6,0
58.792,7,0
58.844,7,0
58.894,7,0
58.944,6,0
58.995,7,0
59.045,7,0
59.096,8,0
59.147,10,0
59.197,9,0
59.247,8,0
59.298,9,0
59.348,9,0
59.399,10,0
59.45,12,0
59.5,13,0
59.55,12,0
59.601,11,0
59.652,10,0
59.702,9,0
59.753,12,0
59.803,11,0
59.853,12,0
59.905,11,0
59.955,9,0
60.005,8,0
60.056,8,0
60.106,8,0
60.156,9,0
60.208,11,0
60.258,10,0
60.308,9,0
60.359,9,0
60.409,9,0
60.46,9,0
60.511,9,0
60.561,9,0
60.611,8,0
60.662,8,0
60.712,7,0
60.763,7,0
60.814,10,0
60.864,11,0
60.914,11,0
60.965,13,0
61.016,13,0
61.066,14,0
61.117,15,0
61.167,18,0
61.218,22,0
61.268,28,0
61.319,33,1
61.37,41,1
61.42,54,1
61.47,67,1
61.521,78,1
61.572,87,1
61.622,100,1
61.673,97,1
61.723,92,1
61.773,90,1
61.825,90,1
61.875,89,1
61.925,80,1
61.976,74,1
62.026,70,1
62.076,61,1
62.128,55,1
62.178,60,1
62.228,67,1
62.279,67,1
62.329,62,1
62.38,59,1
62.431,57,1
62.481,53,1
62.531,53,1
62.582,57,1
62.632,56,1
62.683,56,1
62.734,53,1
62.784,54,1
62.834,53,1
62.885,51,1
62.936,48,1
62.986,44,1
63.037,39,1
63.087,34,1
63.137,30,0
63.188,27,0
63.239,23,0
63.289,20,0
63.34,21,0
63.39,22,0
63.44,22,0
63.492,21,0
63.542,21,0
63.592,21,0
63.643,19,0
63.693,16,0
63.744,16,0
63.795,15,0
63.845,14,0
63.895,13,0
63.946,11,0
63.996,12,0
64.047,10,0
64.098,9,0
64.148,9,0
64.198,10,0
64.249,9,0
64.3,8,0
64.35,7,0
64.401,5,0
64.451,6,0
64.501,7,0
64.552,8,0
64.603,9,0
64.653,10,0
64.704,9,0
64.754,9,0
64.804,9,0
64.856,9,0
64.906,10,0
64.956,11,0
65.007,10,0
65.057,10,0
65.107,9,0
65.159,8,0
65.209,7,0
65.259,7,0
65.31,8,0
65.36,6,0
65.411,7,0
65.462,6,0
65.512,6,0
65.562,5,0
65.613,5,0
65.664,5,0
65.714,6,0
65.765,6,0
65.815,5,0
65.865,5,0
65.916,5,0
65.967,4,0
66.017,5,0
66.068,6,0
66.118,5,0
66.168,6,0
66.22,7,0
66.27,7,0
66.32,9,0
66.371,10,0
66.421,10,0
66.471,11,0
66.523,11,0
66.573,11,0
66.623,11,0
66.674,11,0
66.724,11,0
66.775,10,0
66.826,9,0
66.876,8,0
66.926,7,0
66.977,7,0
67.027,6,0
67.078,5,0
67.129,5,0
67.179,6,0
67.229,5,0
67.28,6,0
67.331,5,0
67.381,7,0
67.432,9,0
67.482,12,0
67.532,20,0
67.584,30,0
67.634,40,1
67.684,50,1
67.735,61,1
67.785,73,1
67.835,82,1
67.887,84,1
67.937,83,1
67.987,84,1
68.038,78,1
68.088,71,1
68.139,63,1
68.19,59,1
68.24,54,1
68.29,41,1
68.341,38,1
68.391,40,1
68.442,46,1
68.493,49,1
68.543,48,1
68.593,47,1
68.644,45,1
68.695,41,1
68.745,34,1
68.796,35,1
68.846,32,1
68.896,28,0
68.947,22,0
68.998,17,0
69.048,21,0
69.099,25,0
69.149,27,0
69.199,26,0
69.251,32,1
69.301,38,1
69.351,42,1
69.402,50,1
69.452,56,1
69.502,62,1
69.554,62,1
69.604,60,1
69.654,59,1
69.705,60,1
69.755,55,1
69.806,50,1
69.857,43,1
69.907,35,1
69.957,27,0
70.008,20,0
70.059,15,0
70.109,11,0
70.16,9,0
70.21,8,0
70.26,7,0
70.311,6,0
70.362,7,0
70.412,6,0
70.463,7,0
70.513,7,0
70.563,7,0
70.615,8,0
70.665,9,0
70.715,10,0
70.766,10,0
70.816,10,0
70.866,9,0
70.918,9,0
70.968,9,0
71.018,9,0
71.069,9,0
71.119,8,0
71.17,6,0
71.221,6,0
71.271,7,0
71.322,7,0
71.372,9,0
71.422,9,0
71.474,8,0
71.524,7,0
71.574,7,0
71.625,7,0
71.675,7,0
71.726,7,0
71.777,6,0
71.827,6,0
71.877,6,0
71.928,7,0
71.979,8,0
72.029,8,0
72.08,8,0
72.13,8,0
72.18,8,0
72.231,9,0
72.282,11,0
72.332,10,0
72.383,10,0
72.433,12,0
72.483,15,0
72.535,20,0
72.585,27,0
72.635,31,0
72.686,38,1
72.736,44,1
72.786,51,1
72.838,55,1
72.888,58,1
72.938,61,1
72.989,64,1
73.039,61,1
73.09,56,1
73.141,51,1
73.191,45,1
73.241,39,1
73.292,34,1
73.342,30,0
73.393,29,0
73.444,27,0
73.494,25,0
73.544,27,0
73.595,31,0
73.646,37,1
73.696,43,1
73.747,47,1
73.797,45,1
73.847,45,1
73.899,45,1
73.949,45,1
73.999,45,1
74.05,43,1
74.1,42,1
74.15,40,1
74.202,38,1
74.252,35,1
74.302,33,1
74.353,33,1
74.403,31,0
74.454,28,0
74.505,25,0
74.555,23,0
74.605,21,0
74.656,19,0
74.706,16,0
74.757,14,0
74.808,12,0
74.858,12,0
74.908,12,0
74.959,10,0
75.01,8,0
75.06,7,0
75.111,6,0
75.161,5,0
75.211,5,0
75.262,5,0
75.313,5,0
75.363,5,0
75.414,5,0
75.464,6,0
75.514,6,0
75.566,7,0
75.616,7,0
75.666,6,0
75.717,6,0
75.767,7,0
75.817,7,0
75.869,7,0
75.919,8,0
75.969,9,0
76.02,9,0
76.07,10,0
76.121,10,0
76.172,10,0
76.222,10,0
76.272,8,0
76.323,9,0
76.374,9,0
76.424,8,0
76.475,7,0
76.525,6,0
76.576,4,0
76.626,3,0
76.677,2,0
76.728,3,0
76.778,3,0
76.828,4,0
76.879,3,0
76.93,3,0
76.98,4,0
77.031,4,0
77.081,5,0
77.131,5,0
77.182,5,0
77.233,5,0
77.283,4,0
77.334,4,0
77.384,5,0
77.434,5,0
77.486,5,0
77.536,5,0
77.586,4,0
77.637,4,0
77.687,4,0
77.737,4,0
77.789,5,0
77.839,5,0
77.889,6,0
77.94,6,0
77.99,6,0
78.041,5,0
78.092,6,0
78.142,6,0
78.192,7,0
78.243,6,0
78.294,7,0
78.344,6,0
78.395,5,0
78.445,5,0
78.495,7,0
78.546,10,0
78.597,9,0
78.647,13,0
78.698,17,0
78.748,21,0
78.798,24,0
78.85,28,0
78.9,29,0
78.95,34,1
79.001,37,1
79.051,43,1
79.101,51,1
79.153,58,1
79.203,65,1
79.253,78,1
79.304,82,1
79.354,78,1
79.405,84,1
79.456,89,1
79.506,96,1
79.556,98,1
79.607,94,1
79.657,84,1
79.708,79,1
79.759,65,1
79.809,63,1
79.859,73,1
79.91,78,1
79.961,80,1
80.011,81,1
80.062,82,1
80.112,85,1
80.162,92,1
80.214,89,1
80.264,91,1
80.314,88,1
80.365,82,1
80.415,74,1
80.465,65,1
80.517,54,1
80.567,43,1
80.617,36,1
80.668,29,0
80.718,26,0
80.769,23,0
80.82,20,0
80.87,18,0
80.92,15,0
80.971,13,0
81.021,13,0
81.072,13,0
81.123,13,0
81.173,13,0
81.223,13,0
81.274,13,0
81.325,13,0
81.375,11,0
81.426,11,0
81.476,10,0
81.526,8,0
81.577,7,0
81.628,6,0
81.678,5,0
81.729,5,0
81.779,4,0
81.829,3,0
81.881,3,0
81.931,2,0
81.981,2,0
82.032,2,0
82.082,3,0
82.132,3,0
82.184,3,0
82.234,2,0
82.284,2,0
82.335,2,0
82.385,2,0
82.436,3,0
82.487,3,0
82.537,4,0
82.587,3,0
82.638,2,0
82.689,3,0
82.739,3,0
82.79,4,0
82.84,5,0
82.89,4,0
82.941,4,0
82.992,4,0
83.042,4,0
83.093,4,0
83.143,4,0
83.193,4,0
83.245,4,0
83.295,3,0
83.345,3,0
83.396,3,0
83.446,2,0
83.496,3,0
83.548,3,0
83.598,3,0
83.648,3,0
83.699,4,0
83.749,5,0
83.8,6,0
83.851,7,0
83.901,9,0
83.951,12,0
84.002,13,0
84.052,17,0
84.103,22,0
84.154,29,0
84.204,35,1
84.254,41,1
84.305,49,1
84.356,61,1
84.406,72,1
84.457,83,1
84.507,90,1
84.557,97,1
84.609,102,1
84.659,97,1
84.709,96,1
84.76,95,1
84.81,93,1
84.86,86,1
84.912,81,1
84.962,77,1
85.012,73,1
85.063,74,1
85.113,75,1
85.164,86,1
85.215,86,1
85.265,87,1
85.315,87,1
85.366,90,1
85.416,90,1
85.467,87,1
85.518,90,1
85.568,87,1
85.618,85,1
85.669,80,1
85.72,78,1
85.77,76,1
85.821,74,1
85.871,65,1
85.921,59,1
85.972,54,1
86.023,48,1
86.073,40,1
86.124,35,1
86.174,27,0
86.224,23,0
86.276,19,0
86.326,14,0
86.376,14,0
86.427,13,0
86.477,12,0
86.528,11,0
86.579,10,0
86.629,9,0
86.679,8,0
86.73,8,0
86.78,7,0
86.831,7,0
86.882,7,0
86.932,6,0
86.982,5,0
87.033,4,0
87.084,3,0
87.134,3,0
87.185,3,0
87.235,3,0
87.286,4,0
87.336,4,0
87.387,4,0
87.438,4,0
87.488,4,0
87.538,4,0
87.589,4,0
87.64,5,0
87.69,5,0
87.741,5,0
87.791,4,0
87.841,4,0
87.892,4,0
87.943,4,0
87.993,5,0
88.044,5,0
88.094,5,0
88.144,5,0
88.196,4,0
88.246,4,0
88.296,4,0
88.347,3,0
88.397,4,0
88.448,4,0
88.499,3,0
88.549,4,0
88.599,5,0
88.65,5,0
88.7,6,0
88.751,6,0
88.802,7,0
88.852,7,0
88.902,6,0
88.953,6,0
89.004,7,0
89.054,6,0
89.105,5,0
89.155,4,0
89.205,4,0
89.256,4,0
89.307,4,0
89.357,4,0
89.408,3,0
89.458,3,0
89.508,3,0
89.56,3,0
89.61,3,0
89.66,4,0
89.711,3,0
89.761,3,0
89.811,3,0
89.863,4,0
89.913,4,0
89.963,5,0
90.014,5,0
90.064,5,0
90.115,6,0
90.166,6,0
90.216,7,0
90.266,9,0
90.317,9,0
90.368,10,0
90.418,11,0
90.469,12,0
90.519,14,0
90.569,16,0
90.62,17,0
90.671,18,0
90.721,21,0
90.772,22,0
90.822,23,0
90.872,26,0
90.924,28,0
90.974,31,0
91.024,32,1
91.075,39,1
91.125,44,1
91.175,44,1
91.227,45,1
91.277,44,1
91.327,45,1
91.378,48,1
91.428,45,1
91.479,46,1
91.53,58,1
91.58,61,1
91.63,66,1
91.681,64,1
91.731,59,1
91.782,69,1
91.833,74,1
91.883,70,1
91.933,77,1
91.984,77,1
92.035,62,1
92.085,57,1
92.136,54,1
92.186,60,1
92.236,72,1
92.288,68,1
92.338,68,1
92.388,75,1
92.439,76,1
92.489,80,1
92.539,92,1
92.591,98,1
92.641,103,1
92.691,109,1
92.742,108,1
92.792,110,1
92.843,105,1
92.894,100,1
92.944,94,1
92.994,86,1
93.045,76,1
93.095,66,1
93.146,54,1
93.197,43,1
93.247,32,1
93.297,24,0
93.348,20,0
93.399,16,0
93.449,15,0
93.5,14,0
93.55,13,0
93.6,12,0
93.651,11,0
93.702,9,0
93.752,9,0
93.803,11,0
93.853,11,0
93.903,11,0
93.955,10,0
94.005,10,0
94.055,10,0
94.106,9,0
94.156,9,0
94.206,9,0
94.258,8,0
94.308,6,0
94.358,5,0
94.409,5,0
94.459,6,0
94.51,4,0
94.561,3,0
94.611,3,0
94.661,2,0
94.712,2,0
94.763,3,0
94.813,3,0
94.864,5,0
94.914,7,0
94.964,6,0
95.015,7,0
95.066,7,0
95.116,8,0
95.167,8,0
95.217,8,0
95.268,8,0
95.319,8,0
95.369,6,0
95.42,5,0
95.47,5,0
95.52,5,0
95.571,6,0
95.622,5,0
95.672,6,0
95.723,5,0
95.773,5,0
95.823,5,0
95.875,5,0
95.925,5,0
95.975,5,0
96.026,4,0
96.076,3,0
96.126,4,0
96.178,4,0
96.228,4,0
96.278,5,0
96.329,5,0
96.379,4,0
96.43,5,0
96.481,6,0
96.531,7,0
96.581,9,0
96.632,9,0
96.683,9,0
96.733,9,0
96.784,10,0
96.834,10,0
96.884,12,0
96.935,11,0
96.986,11,0
97.036,11,0
97.087,10,0
97.137,8,0
97.187,8,0
97.239,8,0
97.289,7,0
97.339,6,0
97.39,5,0
97.44,6,0
97.49,8,0
97.542,8,0
97.592,10,0
97.642,13,0
97.693,17,0
97.743,22,0
97.794,27,0
97.845,35,1
97.895,38,1
97.945,45,1
97.996,50,1
98.046,57,1
98.097,63,1
98.148,72,1
98.198,82,1
98.248,86,1
98.299,92,1
98.35,101,1
98.4,104,1
98.451,97,1
98.501,97,1
98.551,95,1
98.603,92,1
98.653,91,1
98.703,84,1
98.754,79,1
98.804,79,1
98.854,76,1
98.906,82,1
98.956,90,1
99.006,91,1
99.057,94,1
99.107,100,1
99.158,100,1
99.209,101,1
99.259,106,1
99.309,98,1
99.36,91,1
99.41,78,1
99.461,70,1
99.512,63,1
99.562,54,1
99.612,45,1
99.663,40,1
99.714,33,1
99.764,25,0
99.815,24,0
99.865,17,0
99.915,18,0
99.966,18,0
100.017,18,0
100.067,20,0
100.118,18,0
100.168,13,0
100.219,12,0
100.27,11,0
100.32,10,0
100.371,13,0
100.421,14,0
100.471,13,0
100.523,13,0
100.573,12,0
100.624,13,0
100.674,13,0
100.724,13,0
100.775,13,0
100.826,15,0
100.877,15,0
100.927,14,0
100.977,16,0
