0,219
50,212
100,200
150,192
200,193
251,199
302,184
352,179
402,189
453,191
503,177
553,175
604,185
655,192
705,174
755,158
805,159
857,180
907,187
957,181
1007,194
1058,180
1108,194
1159,179
1210,229
1260,212
1310,188
1360,203
1412,175
1462,184
1512,181
1563,205
1613,260
1664,243
1715,239
1765,223
1815,245
1865,218
1916,279
1967,253
2017,233
2068,238
2118,223
2168,216
2219,226
2270,281
2320,246
2370,260
2421,253
2471,258
2522,249
2572,255
2623,245
2673,229
2723,213
2775,270
2825,236
2875,303
2926,251
2976,251
3026,251
3077,234
3128,237
3178,282
3228,286
3279,238
3330,240
3380,228
3430,225
3481,236
3531,277
3581,288
3633,248
3683,249
3733,268
3783,236
3834,235
3885,240
3935,275
3986,245
4036,233
4086,217
4137,217
4188,224
4238,238
4288,281
4339,310
4389,345
4440,425
4491,413
4541,477
4591,415
4641,394
4692,445
4743,433
4793,443
4844,420
4894,449
4944,397
4995,405
5046,458
5096,403
5146,433
5197,426
5248,387
5298,410
5349,421
5399,393
5449,431
5499,413
5551,415
5601,412
5651,391
5702,411
5752,393
5803,360
5853,362
5904,337
5954,321
6004,320
6055,325
6106,320
6156,337
6206,349
6257,360
6307,314
6358,324
6409,337
6459,422
6509,419
6560,392
6610,384
6661,347
6711,351
6762,396
6812,387
6862,363
6914,385
6964,436
7014,422
7064,410
7115,377
7165,368
7216,374
7267,350
7317,298
7367,380
7417,389
7469,367
7519,342
7569,360
7620,363
7670,349
7720,323
7772,352
7822,337
7872,352
7922,348
7973,317
8024,303
8074,298
8125,333
8175,311
8225,330
8275,346
8327,321
8377,310
8427,324
8478,333
8528,310
8579,314
8629,320
8680,325
8730,326
8780,365
8832,420
8882,382
8932,364
8983,360
9033,358
9083,362
9134,380
9185,373
9235,371
9285,417
9336,370
9387,352
9437,383
9487,371
9538,365
9588,386
9638,380
9690,400
9740,469
9790,473
9840,497
9891,500
9942,454
9992,578
10043,531
10093,591
10143,750
10194,629
10245,577
10295,507
10346,426
10396,373
10446,356
10498,350
10548,342
10598,314
10649,298
10699,316
10749,331
10801,330
10851,390
10901,360
10952,366
11002,325
11053,327
11104,330
11154,311
11204,330
11255,316
11305,341
11356,388
11407,366
11457,349
11507,305
11558,293
11609,290
11659,322
11710,314
11760,317
11810,284
11862,287
11912,274
11962,295
12013,271
12063,277
12113,279
12165,270
12215,258
12265,302
12316,288
12366,264
12417,252
12468,290
12518,240
12568,231
12619,241
12669,251
12720,256
12771,265
12821,248
12871,252
12922,263
12973,265
13023,227
13074,209
13124,206
13174,220
13225,234
13276,193
13326,208
13377,218
13427,197
13477,185
13529,204
13579,208
13629,226
13680,227
13730,207
13780,201
13832,186
13882,190
13932,222
13983,186
14033,197
14084,190
14135,199
14185,211
14235,208
14286,195
14337,179
14387,195
14438,185
14488,199
14538,213
14589,219
14640,191
14690,196
14741,202
14791,197
14841,213
14893,214
14943,201
14993,203
15044,188
15094,186
15144,211
15196,187
15246,199
15296,213
15347,187
15397,172
15448,178
15499,203
15549,199
15599,188
15650,176
15700,177
15751,176
15802,182
15852,185
15902,184
15953,202
16004,234
16054,260
16105,281
16155,280
16205,284
16257,264
16307,291
16357,270
16408,246
16458,300
16508,279
16560,354
16610,424
16660,482
16711,479
16761,400
16812,394
16863,381
16913,415
16963,399
17014,417
17064,378
17115,437
17166,419
17216,397
17266,414
17317,412
17368,394
17418,416
17469,404
17519,379
17569,325
17620,330
17671,352
17721,344
17772,362
17822,361
17872,364
17924,346
17974,363
18024,371
18075,353
18125,374
18176,374
18227,381
18277,332
18327,380
18378,390
18428,339
18479,373
18530,353
18580,351
18630,378
18681,346
18732,337
18782,400
18833,366
18883,372
18933,438
18984,426
19035,423
19085,427
19136,395
19186,421
19236,430
19288,465
19338,487
19388,436
19439,474
19489,493
19539,482
19591,474
19641,499
19691,492
19742,474
19792,441
19843,454
19894,461
19944,442
19994,430
20045,480
20096,531
20146,500
20197,450
20247,537
20297,619
20348,708
20399,685
20449,879
20500,890
20550,799
20600,851
20652,817
20702,897
20752,795
20803,683
20853,650
20903,739
20955,769
21005,672
21055,762
21106,693
21156,488
21207,465
21258,466
21308,538
21358,414
21409,384
21459,361
21510,297
21561,318
21611,323
21661,362
21712,343
21763,357
21813,343
21864,287
21914,294
21964,312
22016,302
22066,321
22116,321
22167,305
22217,299
22267,301
22319,305
22369,271
22419,292
22470,293
22520,282
22571,233
22622,250
22672,256
22722,253
22773,311
22823,254
22874,255
22925,254
22975,247
23025,237
23076,240
23127,230
23177,227
23228,229
23278,214
23328,219
23379,190
23430,209
23480,236
23531,207
23581,206
23631,194
23683,193
23733,186
23783,197
23834,192
23884,212
23934,215
23986,191
24036,211
24086,243
24137,210
24187,222
24238,200
24289,199
24339,194
24389,193
24440,175
24491,170
24541,189
24592,178
24642,200
24692,192
24743,164
24794,200
24844,184
24895,160
24945,175
24995,172
25047,195
25097,212
25147,198
25198,193
25248,181
25298,175
25350,168
25400,206
25450,177
25501,197
25551,172
25602,159
25653,167
25703,154
25753,142
25804,184
25854,170
25905,187
25956,171
26006,162
26056,162
26107,163
26158,180
26208,177
26259,226
26309,222
26359,211
26411,199
26461,193
26511,183
26562,191
26612,193
26662,198
26714,180
26764,187
26814,195
26865,186
26915,192
26966,182
27017,195
27067,238
27117,234
27168,222
27218,231
27269,234
27320,226
27370,195
27420,209
27471,219
27522,221
27572,218
27623,217
27673,209
27723,201
27774,190
27825,240
27875,229
27926,252
27976,253
28026,248
28078,243
28128,231
28178,246
28229,241
28279,247
28329,251
28381,242
28431,239
28481,246
28532,277
28582,251
28633,253
28684,250
28734,288
28784,328
28835,364
28886,385
28936,457
28987,508
29037,579
29087,667
29138,720
29189,1021
29239,974
29290,1023
29340,1015
29391,1023
29442,1003
29492,1001
29543,855
29593,778
29643,782
29694,753
29745,678
29795,547
29846,655
29896,589
29946,675
29998,749
30048,768
30098,667
30149,882
30199,813
30249,671
30301,709
30351,653
30401,640
30452,698
30502,599
30553,589
30604,639
30654,616
30704,608
30755,641
30806,597
30856,670
30907,634
30957,578
31007,666
31058,685
31109,619
31159,497
31210,504
31260,383
31310,427
31362,332
31412,300
31462,304
31513,298
31563,262
31613,256
31665,237
31715,264
31765,272
31816,254
31866,248
31917,240
31968,253
32018,258
32068,283
32119,245
32169,236
32220,264
32271,231
32321,235
32371,211
32422,214
32473,221
32523,230
32574,248
32624,206
32674,225
32726,187
32776,203
32826,228
32877,213
32927,219
32977,215
33029,210
33079,247
33129,215
33180,202
33230,182
33281,195
33332,188
33382,205
33432,216
33483,191
33533,166
33584,174
33635,184
33685,170
33735,192
33786,181
33837,182
33887,186
33938,177
33988,150
34038,171
34089,172
34140,161
34190,150
34241,159
34291,145
34341,156
34393,143
34443,145
34493,133
34544,137
34594,132
34644,131
34696,133
34746,136
34796,145
34847,143
34897,149
34948,159
34999,173
35049,159
35099,153
35150,151
35201,172
35251,155
35302,157
35352,142
35402,149
35453,148
35504,140
35554,139
35605,183
35655,237
35705,265
35757,268
35807,260
35857,269
35908,234
35958,288
36008,320
36060,336
36110,356
36160,339
36211,287
36261,296
36312,366
36363,326
36413,332
36463,314
36514,248
36564,197
36615,178
36666,144
36716,148
36766,132
36817,158
36868,156
36918,182
36969,210
37019,201
37069,226
37121,254
37171,237
37221,238
37272,241
37322,239
37372,228
37424,233
37474,246
37524,260
37575,272
37625,268
37676,260
37727,265
37777,243
37827,268
37878,250
37928,254
37979,290
38030,287
38080,309
38131,287
38181,256
38232,305
38283,314
38333,333
38383,314
38434,354
38484,348
38535,375
38586,357
38636,370
38686,387
38737,443
38788,414
38838,463
38889,445
38939,442
38989,445
39041,415
39091,414
39141,464
39192,398
39242,355
39292,382
39344,384
39394,330
39444,309
39495,354
39545,270
39596,300
39647,283
39697,246
39747,214
39798,218
39848,248
39899,229
39950,211
40000,200
40050,185
40101,204
40152,204
40202,201
40253,224
40303,213
40353,199
40404,195
40455,191
40505,180
40556,190
40606,189
40656,194
40708,211
40758,183
40808,181
40859,198
40909,190
40960,205
41011,185
41061,194
41111,195
41162,202
41212,215
41263,192
41314,218
41364,211
41414,201
41465,224
41516,212
41566,222
41617,186
41667,201
41717,211
41768,187
41819,172
41869,176
41920,188
41970,213
42020,198
42072,179
42122,160
42172,160
42223,160
42273,165
42323,171
42375,172
42425,171
42475,185
42526,193
42576,173
42627,215
42678,182
42728,207
42778,170
42829,186
42880,181
42930,202
42981,202
43031,207
43081,181
43132,188
43183,182
43233,189
43284,201
43334,201
43384,181
43436,194
43486,203
43536,210
43587,189
43637,176
43687,176
43739,162
43789,196
43839,196
43890,184
43940,176
43991,171
44042,183
44092,183
44142,210
44193,208
44243,193
44294,175
44345,208
44395,194
44445,184
44496,177
44547,179
44597,180
44648,189
44698,224
44748,232
44800,264
44850,264
44900,280
44951,279
45001,332
45051,333
45103,348
45153,374
45203,447
45254,499
45304,519
45355,578
45406,600
45456,591
45506,585
45557,623
45607,656
45658,667
45709,711
45759,638
45809,643
45860,649
45911,608
45961,592
46012,594
46062,653
46112,707
46163,719
46214,678
46264,555
46315,511
46365,548
46415,577
46467,430
46517,465
46567,588
46618,610
46668,658
46718,649
46770,571
46820,502
46870,508
46921,541
46971,510
47022,475
47073,438
47123,420
47173,379
47224,432
47275,399
47325,331
47376,315
47426,272
47476,237
47527,223
47578,289
47628,254
47679,257
47729,230
47779,227
47831,223
47881,222
47931,219
47982,219
48032,202
48082,195
48134,209
48184,236
48234,223
48285,229
48335,205
48386,239
48437,236
48487,225
48537,248
48588,249
48638,235
48689,220
48740,215
48790,200
48840,214
48891,227
48942,195
48992,218
49043,209
49093,195
49143,240
49195,252
49245,207
49295,235
49346,235
49396,250
49446,223
49498,224
49548,231
49598,231
49649,223
49699,215
49750,201
49801,195
49851,222
49901,200
49952,186
50002,177
50053,173
50104,203
50154,220
50204,222
50255,198
50306,219
50356,204
50407,211
50457,207
50507,191
50558,188
50609,199
50659,204
50710,207
50760,181
50810,181
50862,193
50912,187
50962,193
51013,174
51063,179
51113,193
51165,209
51215,194
51266,190
51316,186
51366,180
51418,218
51468,212
51518,242
51569,210
51619,210
51670,223
51721,193
51771,207
51821,187
51872,211
51922,249
51973,204
52024,184
52074,227
52124,186
52175,192
52226,180
52276,188
52327,201
52377,211
52427,185
52478,212
52529,201
52579,202
52630,195
52680,192
52730,193
52782,185
52832,198
52882,210
52933,209
52983,220
53033,208
53085,239
53135,277
53185,258
53236,342
53286,408
53337,555
53388,713
53438,766
53488,827
53539,842
53590,720
53640,675
53691,685
53741,627
53791,689
53842,543
53893,462
53943,497
53994,456
54044,551
54094,521
54146,536
54196,472
54246,448
54297,430
54347,514
54397,483
54449,434
54499,331
54549,344
54600,355
54650,413
54701,325
54752,332
54802,302
54852,307
54903,266
54953,240
55004,244
55055,219
55105,228
55155,228
55206,212
55257,216
55307,231
55358,211
55408,181
55458,228
55510,198
55560,186
55610,171
55661,187
55711,190
55761,186
55813,195
55863,217
55913,197
55964,205
56014,197
56065,187
56116,194
56166,196
56216,174
56267,170
56317,171
56368,179
56419,198
56469,192
56519,193
56570,194
56621,174
56671,176
56722,168
56772,165
56822,201
56873,181
56924,183
56974,168
57025,184
57075,158
57125,184
57177,176
57227,192
57277,183
57328,193
57378,181
57428,192
57480,172
57530,174
57580,170
57631,165
57681,172
57732,156
57783,176
57833,161
57883,169
57934,161
57985,170
58035,167
58086,177
58136,157
58186,166
58237,179
58288,171
58338,163
58389,160
58439,180
58489,170
58541,171
58591,184
58641,174
58692,191
58742,185
58792,190
58844,182
58894,169
58944,186
58995,184
59045,172
59096,159
59147,200
59197,171
59247,178
59298,198
59348,180
59399,157
59450,152
59500,162
59550,169
59601,178
59652,183
59702,164
59753,196
59803,162
59853,189
59905,188
59955,175
60005,184
60056,173
60106,188
60156,197
60208,217
60258,207
60308,195
60359,204
60409,181
60460,199
60511,204
60561,194
60611,192
60662,206
60712,207
60763,217
60814,250
60864,235
60914,204
60965,238
61016,233
61066,247
61117,232
61167,294
61218,315
61268,367
61319,386
61370,406
61420,533
61470,532
61521,528
61572,542
61622,635
61673,522
61723,511
61773,513
61825,477
61875,486
61925,489
61976,453
62026,381
62076,423
62128,368
62178,357
62228,331
62279,358
62329,354
62380,345
62431,321
62481,258
62531,231
62582,231
62632,230
62683,222
62734,229
62784,203
62834,202
62885,205
62936,239
62986,208
63037,236
63087,197
63137,192
63188,184
63239,188
63289,184
63340,168
63390,176
63440,168
63492,180
63542,200
63592,158
63643,182
63693,181
63744,161
63795,157
63845,152
63895,161
63946,167
63996,165
64047,164
64098,154
64148,156
64198,181
64249,160
64300,174
64350,182
64401,170
64451,180
64501,180
64552,180
64603,189
64653,165
64704,173
64754,189
64804,183
64856,163
64906,164
64956,154
65007,169
65057,163
65107,166
65159,168
65209,164
65259,170
65310,176
65360,167
65411,191
65462,185
65512,179
65562,183
65613,186
65664,179
65714,185
65765,179
65815,186
65865,175
65916,196
65967,182
66017,197
66068,172
66118,183
66168,192
66220,172
66270,172
66320,166
66371,163
66421,166
66471,167
66523,164
66573,193
66623,173
66674,176
66724,163
66775,174
66826,172
66876,176
66926,181
66977,189
67027,176
67078,172
67129,172
67179,168
67229,184
67280,169
67331,183
67381,205
67432,214
67482,256
67532,320
67584,378
67634,385
67684,404
67735,435
67785,480
67835,463
67887,434
67937,409
67987,384
68038,413
68088,398
68139,403
68190,330
68240,296
68290,350
68341,283
68391,297
68442,249
68493,238
68543,288
68593,316
68644,278
68695,257
68745,275
68796,265
68846,234
68896,264
68947,293
68998,290
69048,329
69099,351
69149,328
69199,279
69251,231
69301,212
69351,189
69402,168
69452,177
69502,163
69554,167
69604,161
69654,154
69705,154
69755,145
69806,137
69857,148
69907,140
69957,148
70008,164
70059,157
70109,151
70160,158
70210,161
70260,147
70311,150
70362,180
70412,162
70463,150
70513,155
70563,152
70615,153
70665,143
70715,147
70766,152
70816,162
70866,149
70918,155
70968,139
71018,134
71069,142
71119,149
71170,147
71221,162
71271,161
71322,159
71372,175
71422,157
71474,160
71524,158
71574,176
71625,162
71675,164
71726,155
71777,167
71827,179
71877,187
71928,185
71979,182
72029,164
72080,162
72130,168
72180,173
72231,149
72282,152
72332,172
72383,189
72433,204
72483,246
72535,259
72585,293
72635,278
72686,303
72736,344
72786,378
72838,362
72888,367
72938,381
72989,435
73039,403
73090,409
73141,399
73191,404
73241,385
73292,343
73342,383
73393,341
73444,329
73494,305
73544,287
73595,259
73646,263
73696,245
73747,240
73797,255
73847,279
73899,222
73949,202
73999,177
74050,189
74100,181
74150,190
74202,179
74252,179
74302,176
74353,175
74403,192
74454,168
74505,140
74555,147
74605,145
74656,146
74706,152
74757,164
74808,154
74858,146
74908,153
74959,154
75010,152
75060,145
75111,143
75161,132
75211,154
75262,143
75313,150
75363,147
75414,146
75464,145
75514,157
75566,168
75616,174
75666,160
75717,164
75767,180
75817,162
75869,163
75919,154
75969,154
76020,147
76070,138
76121,150
76172,144
76222,151
76272,151
76323,147
76374,153
76424,151
76475,146
76525,153
76576,148
76626,149
76677,149
76728,133
76778,137
76828,148
76879,145
76930,147
76980,148
77031,149
77081,151
77131,141
77182,142
77233,141
77283,145
77334,152
77384,139
77434,138
77486,139
77536,138
77586,146
77637,142
77687,146
77737,147
77789,165
77839,162
77889,161
77940,160
77990,148
78041,150
78092,147
78142,156
78192,165
78243,156
78294,179
78344,166
78395,161
78445,162
78495,207
78546,227
78597,200
78647,236
78698,246
78748,247
78798,257
78850,295
78900,253
78950,306
79001,352
79051,427
79101,432
79153,471
79203,474
79253,599
79304,543
79354,471
79405,453
79456,375
79506,362
79556,366
79607,425
79657,449
79708,499
79759,404
79809,360
79859,284
79910,275
79961,246
80011,238
80062,242
80112,239
80162,217
80214,190
80264,187
80314,167
80365,158
80415,163
80465,167
80517,164
80567,161
80617,156
80668,155
80718,144
80769,142
80820,132
80870,133
80920,136
80971,128
81021,119
81072,119
81123,113
81173,111
81223,114
81274,108
81325,104
81375,110
81426,105
81476,112
81526,105
81577,106
81628,108
81678,102
81729,101
81779,107
81829,114
81881,106
81931,109
81981,110
82032,108
82082,121
82132,117
82184,112
82234,112
82284,115
82335,114
82385,109
82436,104
82487,104
82537,106
82587,110
82638,108
82689,116
82739,107
82790,100
82840,99
82890,106
82941,116
82992,107
83042,111
83093,113
83143,104
83193,103
83245,107
83295,108
83345,117
83396,109
83446,111
83496,122
83548,115
83598,118
83648,122
83699,135
83749,131
83800,133
83851,151
83901,159
83951,172
84002,177
84052,216
84103,222
84154,290
84204,302
84254,304
84305,353
84356,446
84406,485
84457,500
84507,492
84557,522
84609,503
84659,474
84709,565
84760,596
84810,626
84860,486
84912,466
84962,425
85012,465
85063,388
85113,405
85164,347
85215,354
85265,317
85315,322
85366,277
85416,243
85467,248
85518,176
85568,171
85618,169
85669,141
85720,163
85770,141
85821,142
85871,155
85921,128
85972,124
86023,117
86073,120
86124,116
86174,121
86224,129
86276,134
86326,119
86376,123
86427,111
86477,104
86528,108
86579,107
86629,114
86679,107
86730,107
86780,105
86831,108
86882,110
86932,114
86982,117
87033,111
87084,108
87134,111
87185,119
87235,124
87286,133
87336,128
87387,124
87438,122
87488,116
87538,127
87589,121
87640,128
87690,128
87741,128
87791,132
87841,115
87892,123
87943,128
87993,137
88044,132
88094,125
88144,124
88196,126
88246,122
88296,131
88347,123
88397,136
88448,122
88499,129
88549,115
88599,114
88650,116
88700,116
88751,118
88802,117
88852,109
88902,115
88953,117
89004,120
89054,119
89105,114
89155,118
89205,126
89256,117
89307,113
89357,124
89408,119
89458,117
89508,122
89560,121
89610,123
89660,129
89711,128
89761,127
89811,118
89863,133
89913,117
89963,114
90014,122
90064,122
90115,140
90166,142
90216,137
90266,159
90317,147
90368,157
90418,161
90469,176
90519,178
90569,185
90620,182
90671,212
90721,234
90772,222
90822,232
90872,256
90924,264
90974,290
91024,284
91075,409
91125,378
91175,352
91227,382
91277,349
91327,388
91378,427
91428,383
91479,478
91530,654
91580,622
91630,619
91681,525
91731,526
91782,631
91833,660
91883,560
91933,674
91984,659
92035,601
92085,530
92136,502
92186,513
92236,428
92288,477
92338,452
92388,407
92439,362
92489,315
92539,263
92591,217
92641,196
92691,183
92742,177
92792,180
92843,202
92894,173
92944,161
92994,163
93045,160
93095,145
93146,152
93197,151
93247,151
93297,167
93348,160
93399,155
93449,179
93500,158
93550,147
93600,138
93651,152
93702,158
93752,142
93803,132
93853,139
93903,143
93955,151
94005,133
94055,134
94106,132
94156,137
94206,149
94258,142
94308,145
94358,143
94409,137
94459,147
94510,143
94561,144
94611,145
94661,144
94712,148
94763,149
94813,128
94864,167
94914,165
94964,153
95015,153
95066,152
95116,157
95167,148
95217,151
95268,149
95319,145
95369,157
95420,146
95470,139
95520,142
95571,142
95622,150
95672,133
95723,145
95773,137
95823,135
95875,150
95925,137
95975,143
96026,141
96076,143
96126,155
96178,153
96228,151
96278,153
96329,135
96379,146
96430,134
96481,131
96531,124
96581,124
96632,121
96683,139
96733,129
96784,149
96834,156
96884,154
96935,142
96986,152
97036,135
97087,138
97137,144
97187,150
97239,143
97289,155
97339,147
97390,154
97440,169
97490,208
97542,181
97592,202
97642,202
97693,241
97743,262
97794,293
97845,338
97895,302
97945,360
97996,366
98046,407
98097,426
98148,515
98198,602
98248,544
98299,607
98350,706
98400,628
98451,555
98501,688
98551,691
98603,569
98653,502
98703,531
98754,548
98804,455
98854,412
98906,416
98956,390
99006,377
99057,347
99107,311
99158,260
99209,247
99259,213
99309,268
99360,222
99410,282
99461,270
99512,232
99562,234
99612,220
99663,188
99714,218
99764,216
99815,208
99865,212
99915,197
99966,193
100017,224
100067,172
100118,191
100168,198
100219,186
100270,201
100320,185
100371,161
100421,152
100471,171
100523,163
100573,165
100624,199
100674,179
100724,166
100775,181
100826,151
100877,137
100927,148
100977,140
