time,filtered_emg,gesture
0.0,-1,0
0.05,-1,0
0.1,-1,0
0.15,-1,0
0.2,0,0
0.251,0,0
0.302,0,0
0.352,0,0
0.402,1,0
0.453,1,0
0.503,2,0
0.553,2,0
0.604,2,0
0.655,2,0
0.705,2,0
0.755,2,0
0.805,3,0
0.857,3,0
0.907,3,0
0.957,2,0
1.007,2,0
1.058,2,0
1.108,3,0
1.159,3,0
1.21,4,0
1.26,4,0
1.31,4,0
1.36,4,0
1.412,5,0
1.462,6,0
1.512,7,0
1.563,6,0
1.613,6,0
1.664,7,0
1.715,7,0
1.765,7,0
1.815,7,0
1.865,6,0
1.916,6,0
1.967,5,0
2.017,4,0
2.068,4,0
2.118,4,0
2.168,3,0
2.219,2,0
2.27,1,0
2.32,1,0
2.37,1,0
2.421,0,0
2.471,0,0
2.522,0,0
2.572,0,0
2.623,0,0
2.673,0,0
2.723,0,0
2.775,1,0
2.825,2,0
2.875,4,0
2.926,8,0
2.976,13,0
3.026,13,0
3.077,15,0
3.128,16,0
3.178,18,0
3.228,21,0
3.279,21,0
3.33,20,0
3.38,19,0
3.43,15,0
3.481,12,0
3.531,13,0
3.581,15,0
3.633,14,0
3.683,12,0
3.733,14,0
3.783,17,0
3.834,21,0
3.885,22,0
3.935,28,0
3.986,26,0
4.036,29,0
4.086,27,0
4.137,27,0
4.188,28,0
4.238,26,0
4.288,24,0
4.339,22,0
4.389,23,0
4.44,18,0
4.491,18,0
4.541,17,0
4.591,18,0
4.641,18,0
4.692,20,0
4.743,21,0
4.793,22,0
4.844,21,0
4.894,22,0
4.944,25,0
4.995,27,0
5.046,28,0
5.096,25,0
5.146,25,0
5.197,30,0
5.248,32,0
5.298,43,0
5.349,44,0
5.399,42,0
5.449,44,0
5.499,46,0
5.551,48,0
5.601,49,0
5.651,55,1
5.702,53,1
5.752,51,0
5.803,45,0
5.853,44,0
5.904,45,0
5.954,42,0
6.004,38,0
6.055,35,0
6.106,36,0
6.156,34,0
6.206,32,0
6.257,31,0
6.307,25,0
6.358,23,0
6.409,27,0
6.459,29,0
6.509,37,0
6.56,43,0
6.61,49,0
6.661,54,1
6.711,59,1
6.762,60,1
6.812,66,1
6.862,70,1
6.914,68,1
6.964,63,1
7.014,56,1
7.064,47,0
7.115,38,0
7.165,30,0
7.216,21,0
7.267,16,0
7.317,11,0
7.367,8,0
7.417,6,0
7.469,7,0
7.519,8,0
7.569,10,0
7.62,12,0
7.67,12,0
7.72,13,0
7.772,13,0
7.822,12,0
7.872,12,0
7.922,12,0
7.973,11,0
8.024,9,0
8.074,7,0
8.125,5,0
8.175,5,0
8.225,4,0
8.275,4,0
8.327,4,0
8.377,4,0
8.427,3,0
8.478,3,0
8.528,3,0
8.579,3,0
8.629,3,0
8.68,3,0
8.73,3,0
8.78,3,0
8.832,3,0
8.882,3,0
8.932,3,0
8.983,3,0
9.033,2,0
9.083,2,0
9.134,2,0
9.185,2,0
9.235,2,0
9.285,2,0
9.336,2,0
9.387,2,0
9.437,2,0
9.487,2,0
9.538,2,0
9.588,2,0
9.638,2,0
9.69,2,0
9.74,2,0
9.79,3,0
9.84,3,0
9.891,3,0
9.942,4,0
9.992,4,0
10.043,4,0
10.093,6,0
10.143,8,0
10.194,10,0
10.245,12,0
10.295,18,0
10.346,25,0
10.396,28,0
10.446,30,0
10.498,35,0
10.548,42,0
10.598,46,0
10.649,44,0
10.699,44,0
10.749,43,0
10.801,39,0
10.851,34,0
10.901,31,0
10.952,27,0
11.002,24,0
11.053,18,0
11.104,15,0
11.154,19,0
11.204,20,0
11.255,19,0
11.305,22,0
11.356,25,0
11.407,28,0
11.457,30,0
11.507,28,0
11.558,30,0
11.609,28,0
11.659,25,0
11.71,26,0
11.76,28,0
11.81,24,0
11.862,22,0
11.912,23,0
11.962,21,0
12.013,26,0
12.063,23,0
12.113,23,0
12.165,26,0
12.215,23,0
12.265,26,0
12.316,33,0
12.366,39,0
12.417,44,0
12.468,50,0
12.518,53,1
12.568,56,1
12.619,62,1
12.669,58,1
12.72,63,1
12.771,60,1
12.821,56,1
12.871,53,1
12.922,48,0
12.973,42,0
13.023,36,0
13.074,39,0
13.124,43,0
13.174,55,1
13.225,62,1
13.276,73,1
13.326,81,1
13.377,84,1
13.427,88,1
13.477,93,1
13.529,97,1
13.579,94,1
13.629,87,1
13.68,77,1
13.73,67,1
13.78,54,1
13.832,43,0
13.882,33,0
13.932,26,0
13.983,20,0
14.033,16,0
14.084,12,0
14.135,10,0
14.185,9,0
14.235,7,0
14.286,8,0
14.337,8,0
14.387,10,0
14.438,10,0
14.488,11,0
14.538,11,0
14.589,11,0
14.64,11,0
14.69,10,0
14.741,9,0
14.791,8,0
14.841,7,0
14.893,6,0
14.943,5,0
14.993,4,0
15.044,4,0
15.094,4,0
15.144,4,0
15.196,5,0
15.246,5,0
15.296,4,0
15.347,4,0
15.397,4,0
15.448,3,0
15.499,3,0
15.549,3,0
15.599,2,0
15.65,2,0
15.7,2,0
15.751,2,0
15.802,2,0
15.852,2,0
15.902,2,0
15.953,3,0
16.004,4,0
16.054,6,0
16.105,6,0
16.155,7,0
16.205,8,0
16.257,9,0
16.307,9,0
16.357,11,0
16.408,12,0
16.458,11,0
16.508,10,0
16.56,9,0
16.61,9,0
16.66,8,0
16.711,7,0
16.761,6,0
16.812,5,0
16.863,3,0
16.913,3,0
16.963,2,0
17.014,2,0
17.064,2,0
17.115,4,0
17.166,5,0
17.216,8,0
17.266,10,0
17.317,15,0
17.368,15,0
17.418,20,0
17.469,25,0
17.519,31,0
17.569,38,0
17.62,44,0
17.671,47,0
17.721,56,1
17.772,65,1
17.822,69,1
17.872,76,1
17.924,79,1
17.974,80,1
18.024,84,1
18.075,82,1
18.125,82,1
18.176,85,1
18.227,85,1
18.277,92,1
18.327,86,1
18.378,88,1
18.428,97,1
18.479,109,1
18.53,107,1
18.58,110,1
18.63,121,1
18.681,117,1
18.732,105,1
18.782,94,1
18.833,96,1
18.883,93,1
18.933,87,1
18.984,78,1
19.035,79,1
19.085,82,1
19.136,69,1
19.186,72,1
19.236,80,1
19.288,80,1
19.338,77,1
19.388,73,1
19.439,66,1
19.489,63,1
19.539,56,1
19.591,48,0
19.641,45,0
19.691,42,0
19.742,37,0
19.792,32,0
19.843,31,0
19.894,30,0
19.944,26,0
19.994,23,0
20.045,21,0
20.096,20,0
20.146,20,0
20.197,17,0
20.247,14,0
20.297,14,0
20.348,12,0
20.399,11,0
20.449,12,0
20.5,11,0
20.55,10,0
20.6,9,0
20.652,7,0
20.702,6,0
20.752,6,0
20.803,4,0
20.853,5,0
20.903,6,0
20.955,5,0
21.005,4,0
21.055,5,0
21.106,4,0
21.156,5,0
21.207,5,0
21.258,5,0
21.308,6,0
21.358,6,0
21.409,6,0
21.459,7,0
21.51,7,0
21.561,7,0
21.611,7,0
21.661,7,0
21.712,6,0
21.763,6,0
21.813,6,0
21.864,6,0
21.914,6,0
21.964,5,0
22.016,5,0
22.066,4,0
22.116,5,0
22.167,4,0
22.217,5,0
22.267,5,0
22.319,5,0
22.369,4,0
22.419,4,0
22.47,3,0
22.52,4,0
22.571,4,0
22.622,3,0
22.672,4,0
22.722,3,0
22.773,3,0
22.823,3,0
22.874,3,0
22.925,4,0
22.975,3,0
23.025,4,0
23.076,5,0
23.127,4,0
23.177,5,0
23.228,9,0
23.278,13,0
23.328,19,0
23.379,27,0
23.43,42,0
23.48,57,1
23.531,74,1
23.581,93,1
23.631,112,1
23.683,128,1
23.733,144,1
23.783,156,1
23.834,169,1
23.884,178,1
23.934,184,1
23.986,187,1
24.036,189,1
24.087,185,1
24.137,179,1
24.187,171,1
24.239,152,1
24.289,139,1
24.339,120,1
24.39,104,1
24.44,87,1
24.491,80,1
24.542,80,1
24.592,80,1
24.642,87,1
24.693,102,1
24.743,128,1
24.794,154,1
24.845,176,1
24.895,189,1
24.945,206,1
24.996,210,1
25.047,197,1
25.097,190,1
25.148,172,1
25.198,151,1
25.248,130,1
25.299,101,1
25.35,84,1
25.4,75,1
25.451,60,1
25.501,51,0
25.551,52,0
25.603,49,0
25.653,52,0
25.703,51,0
25.754,48,0
25.804,50,0
25.854,46,0
25.906,40,0
25.956,36,0
26.006,31,0
26.057,26,0
26.107,20,0
26.158,16,0
26.209,14,0
26.259,12,0
26.309,10,0
26.36,9,0
26.411,8,0
26.461,8,0
26.512,7,0
26.562,7,0
26.612,7,0
26.663,8,0
26.714,8,0
26.764,7,0
26.815,7,0
26.865,8,0
26.915,9,0
26.967,9,0
27.017,10,0
27.067,9,0
27.118,8,0
27.168,8,0
27.218,6,0
27.27,6,0
27.32,7,0
27.37,6,0
27.421,5,0
27.471,4,0
27.522,2,0
27.573,2,0
27.623,2,0
27.673,2,0
27.724,2,0
27.774,3,0
27.825,2,0
27.876,3,0
27.926,2,0
27.976,2,0
28.027,3,0
28.078,3,0
28.128,4,0
28.179,4,0
28.229,5,0
28.279,4,0
28.331,5,0
28.381,5,0
28.431,4,0
28.482,5,0
28.532,5,0
28.582,6,0
28.634,6,0
28.684,8,0
28.734,9,0
28.785,9,0
28.835,9,0
28.886,10,0
28.937,11,0
28.987,10,0
29.037,11,0
29.088,13,0
29.138,15,0
29.189,15,0
29.24,15,0
29.29,15,0
29.34,17,0
29.391,17,0
29.442,16,0
29.492,18,0
29.543,18,0
29.593,18,0
29.643,21,0
29.694,22,0
29.745,28,0
29.795,37,0
29.846,40,0
29.896,45,0
29.946,56,1
29.998,71,1
30.048,94,1
30.098,95,1
30.149,91,1
30.199,89,1
30.249,90,1
30.301,96,1
30.351,102,1
30.401,110,1
30.452,100,1
30.502,85,1
30.553,66,1
30.604,65,1
30.654,67,1
30.704,71,1
30.755,68,1
30.806,54,1
30.856,48,0
30.907,44,0
30.957,47,0
31.007,52,0
31.058,53,1
31.109,56,1
31.159,61,1
31.21,59,1
31.26,57,1
31.31,59,1
31.362,60,1
31.412,52,0
31.462,49,0
31.513,42,0
31.563,38,0
31.613,31,0
31.665,27,0
31.715,25,0
31.766,24,0
31.816,26,0
31.866,56,1
31.918,60,1
31.968,68,1
32.018,72,1
32.069,84,1
32.119,95,1
32.169,93,1
32.221,95,1
32.271,100,1
32.321,103,1
32.372,70,1
32.422,74,1
32.473,74,1
32.524,80,1
32.574,79,1
32.624,80,1
32.675,94,1
32.726,100,1
32.776,95,1
32.827,92,1
32.877,97,1
32.927,95,1
32.978,84,1
33.029,81,1
33.079,74,1
33.13,68,1
33.18,61,1
33.23,58,1
33.282,59,1
33.332,54,1
33.382,48,0
33.433,44,0
33.483,44,0
33.533,42,0
33.585,40,0
33.635,38,0
33.685,31,0
33.736,28,0
33.786,25,0
33.837,27,0
33.888,28,0
33.938,27,0
33.988,31,0
34.039,30,0
34.089,28,0
34.14,23,0
34.191,24,0
34.241,20,0
34.291,22,0
34.342,19,0
34.393,19,0
34.443,18,0
34.494,16,0
34.544,14,0
34.594,12,0
34.646,13,0
34.696,13,0
34.746,13,0
34.797,12,0
34.847,12,0
34.897,10,0
34.949,9,0
34.999,8,0
35.049,7,0
35.1,8,0
35.15,7,0
35.201,7,0
35.252,6,0
35.302,6,0
35.352,6,0
35.403,6,0
35.453,6,0
35.504,7,0
35.555,7,0
35.605,6,0
35.655,7,0
35.706,6,0
35.757,7,0
35.807,7,0
35.858,9,0
35.908,11,0
35.958,14,0
36.009,24,0
36.06,31,0
36.11,36,0
36.161,40,0
36.211,50,0
36.261,61,1
36.313,70,1
36.363,75,1
36.413,83,1
36.464,91,1
36.514,88,1
36.564,84,1
36.616,93,1
36.666,97,1
36.716,103,1
36.767,90,1
36.817,86,1
36.868,80,1
36.919,76,1
36.969,71,1
37.019,71,1
37.07,78,1
37.121,67,1
37.171,61,1
37.222,53,1
37.272,70,1
37.322,71,1
37.373,83,1
37.424,89,1
37.474,82,1
37.525,92,1
37.575,106,1
37.625,123,1
37.677,146,1
37.727,165,1
37.777,181,1
37.828,203,1
37.878,209,1
37.928,212,1
37.98,227,1
38.03,218,1
38.08,205,1
38.131,187,1
38.181,165,1
38.232,143,1
38.283,113,1
38.333,86,1
38.383,69,1
38.434,56,1
38.484,42,0
38.535,33,0
38.586,25,0
38.636,24,0
38.686,21,0
38.737,16,0
38.788,15,0
38.838,16,0
38.889,16,0
38.939,15,0
38.989,15,0
39.041,16,0
39.091,15,0
39.141,13,0
39.192,12,0
39.242,13,0
39.292,12,0
39.344,11,0
39.394,9,0
39.444,9,0
39.495,7,0
39.545,6,0
39.596,6,0
39.647,6,0
39.697,5,0
39.747,5,0
39.798,5,0
39.848,4,0
39.899,4,0
39.95,4,0
40.0,5,0
40.05,6,0
40.101,6,0
40.152,6,0
40.202,6,0
40.253,5,0
40.303,6,0
40.353,5,0
40.404,7,0
40.455,7,0
40.505,7,0
40.556,8,0
40.606,7,0
40.656,7,0
40.708,8,0
40.758,7,0
40.808,7,0
40.859,7,0
40.909,6,0
40.96,6,0
41.011,5,0
41.061,3,0
41.111,3,0
41.162,3,0
41.212,3,0
41.263,4,0
41.314,3,0
41.364,4,0
41.414,4,0
41.465,4,0
41.516,5,0
41.566,5,0
41.617,7,0
41.667,9,0
41.717,10,0
41.768,10,0
41.819,13,0
41.869,15,0
41.92,18,0
41.97,21,0
42.02,22,0
42.072,26,0
42.122,31,0
42.172,29,0
42.223,31,0
42.273,30,0
42.323,32,0
42.375,39,0
42.425,39,0
42.475,45,0
42.526,48,0
42.576,44,0
42.627,39,0
42.678,43,0
42.728,53,1
42.778,57,1
42.829,57,1
42.88,51,0
42.93,48,0
42.981,46,0
43.031,42,0
43.081,47,0
43.132,52,0
43.183,54,1
43.233,49,0
43.284,48,0
43.334,52,0
43.384,53,1
43.436,63,1
43.486,57,1
43.536,58,1
43.587,54,1
43.637,50,0
43.687,44,0
43.739,46,0
43.789,53,1
43.839,61,1
43.89,74,1
43.94,80,1
43.991,99,1
44.042,117,1
44.092,134,1
44.142,141,1
44.193,141,1
44.243,136,1
44.294,129,1
44.345,116,1
44.395,102,1
44.445,85,1
44.496,70,1
44.547,51,0
44.597,33,0
44.648,26,0
44.698,25,0
44.748,21,0
44.8,19,0
44.85,17,0
44.9,14,0
44.951,14,0
45.001,12,0
45.051,12,0
45.103,13,0
45.153,12,0
45.203,11,0
45.254,12,0
45.304,12,0
45.355,11,0
45.406,9,0
45.456,9,0
45.506,7,0
45.557,6,0
45.607,5,0
45.658,5,0
45.709,6,0
45.759,5,0
45.809,5,0
45.86,6,0
45.911,6,0
45.961,6,0
46.012,6,0
46.062,5,0
46.112,5,0
46.163,5,0
46.214,4,0
46.264,5,0
46.315,5,0
46.365,4,0
46.415,4,0
46.467,5,0
46.517,5,0
46.567,6,0
46.618,5,0
46.668,6,0
46.718,5,0
46.77,4,0
46.82,4,0
46.87,4,0
46.921,3,0
46.971,3,0
47.022,3,0
47.073,2,0
47.123,2,0
47.173,2,0
47.224,2,0
47.275,3,0
47.325,3,0
47.376,3,0
47.426,4,0
47.476,4,0
47.527,5,0
47.578,5,0
47.628,6,0
47.679,7,0
47.729,8,0
47.779,10,0
47.831,12,0
47.881,15,0
47.932,19,0
47.982,24,0
48.032,27,0
48.083,30,0
48.134,34,0
48.184,40,0
48.235,41,0
48.285,39,0
48.335,43,0
48.387,48,0
48.437,52,0
48.487,55,1
48.538,66,1
48.588,79,1
48.638,83,1
48.69,99,1
48.74,107,1
48.79,114,1
48.841,126,1
48.891,121,1
48.942,128,1
48.993,140,1
49.043,145,1
49.093,132,1
49.144,133,1
49.195,113,1
49.245,115,1
49.296,117,1
49.346,104,1
49.396,104,1
49.447,97,1
49.498,80,1
49.548,64,1
49.599,68,1
49.649,61,1
49.699,59,1
49.751,49,0
49.801,49,0
49.851,50,0
49.902,47,0
49.952,43,0
50.002,40,0
50.054,37,0
50.104,31,0
50.154,37,0
50.205,39,0
50.255,47,0
50.306,42,0
50.357,45,0
50.407,53,1
50.457,53,1
50.508,57,1
50.558,62,1
50.609,67,1
50.66,62,1
50.71,61,1
50.76,55,1
50.811,57,1
50.862,50,0
50.912,45,0
50.963,41,0
51.013,39,0
51.063,35,0
51.115,32,0
51.165,28,0
51.215,23,0
51.266,22,0
51.316,17,0
51.366,15,0
51.418,13,0
51.468,12,0
51.518,10,0
51.569,9,0
51.619,7,0
51.67,7,0
51.721,8,0
51.771,9,0
51.821,8,0
51.872,9,0
51.922,8,0
51.973,9,0
52.024,9,0
52.074,9,0
52.124,9,0
52.175,8,0
52.226,7,0
52.276,6,0
52.327,7,0
52.377,6,0
52.427,6,0
52.478,5,0
52.529,5,0
52.579,5,0
52.63,6,0
52.68,5,0
52.73,6,0
52.782,6,0
52.832,5,0
52.882,6,0
52.933,6,0
52.983,6,0
53.033,6,0
53.085,6,0
53.135,5,0
53.185,6,0
53.236,5,0
53.286,5,0
53.337,5,0
53.388,5,0
53.438,4,0
53.488,4,0
53.539,5,0
53.59,5,0
53.64,6,0
53.691,6,0
53.741,6,0
53.791,7,0
53.842,9,0
53.893,10,0
53.943,12,0
53.994,17,0
54.044,18,0
54.094,20,0
54.146,20,0
54.196,23,0
54.246,23,0
54.297,23,0
54.347,28,0
54.397,36,0
54.449,33,0
54.499,32,0
54.549,32,0
54.6,36,0
54.65,44,0
54.701,44,0
54.752,46,0
54.802,49,0
54.852,43,0
54.903,41,0
54.953,49,0
55.004,56,1
55.055,59,1
55.105,66,1
55.155,70,1
55.206,81,1
55.257,94,1
55.307,110,1
55.358,129,1
55.408,136,1
55.458,128,1
55.51,121,1
55.56,122,1
55.61,128,1
55.661,134,1
55.711,139,1
55.761,142,1
55.813,137,1
55.863,133,1
55.913,136,1
55.964,146,1
56.014,154,1
56.065,159,1
56.116,155,1
56.166,149,1
56.216,143,1
56.267,133,1
56.317,126,1
56.368,115,1
56.419,104,1
56.469,96,1
56.519,86,1
56.57,74,1
56.621,62,1
56.671,49,0
56.722,37,0
56.772,29,0
56.822,22,0
56.873,17,0
56.924,13,0
56.974,14,0
57.025,14,0
57.075,15,0
57.125,14,0
57.177,14,0
57.227,14,0
57.277,14,0
57.328,13,0
57.378,12,0
57.428,12,0
57.48,9,0
57.53,7,0
57.58,7,0
57.631,6,0
57.681,6,0
57.732,7,0
57.783,7,0
57.833,6,0
57.883,5,0
57.934,4,0
57.985,4,0
58.035,5,0
58.086,5,0
58.136,5,0
58.186,4,0
58.237,4,0
58.288,3,0
58.338,4,0
58.389,4,0
58.439,5,0
58.489,4,0
58.541,4,0
58.591,5,0
58.641,5,0
58.692,5,0
58.742,4,0
58.792,4,0
58.844,4,0
58.894,4,0
58.944,4,0
58.995,4,0
59.045,4,0
59.096,4,0
59.147,4,0
59.197,4,0
59.247,4,0
59.298,4,0
59.348,4,0
59.399,4,0
59.45,4,0
59.5,5,0
59.55,5,0
59.601,5,0
59.652,5,0
59.702,6,0
59.753,6,0
59.803,7,0
59.853,8,0
59.905,9,0
59.955,11,0
60.005,14,0
60.056,18,0
60.106,22,0
60.156,26,0
60.208,29,0
60.258,33,0
60.308,38,0
60.359,50,0
60.409,61,1
60.46,73,1
60.511,71,1
60.561,69,1
60.612,67,1
60.662,65,1
60.712,66,1
60.764,71,1
60.814,74,1
60.864,72,1
60.915,72,1
60.965,71,1
61.016,97,1
61.067,102,1
61.117,123,1
61.167,144,1
61.218,154,1
61.268,164,1
61.319,173,1
61.37,173,1
61.42,165,1
61.47,151,1
61.521,139,1
61.572,142,1
61.622,142,1
61.673,134,1
61.723,144,1
61.773,153,1
61.825,170,1
61.875,183,1
61.925,207,1
61.976,227,1
62.026,233,1
62.076,236,1
62.128,224,1
62.178,214,1
62.228,193,1
62.279,168,1
62.329,135,1
62.381,114,1
62.431,89,1
62.481,69,1
62.532,48,0
62.582,38,0
62.632,29,0
62.684,26,0
62.734,22,0
62.784,19,0
62.835,20,0
62.885,18,0
62.936,16,0
62.987,15,0
63.037,14,0
63.087,14,0
63.138,14,0
63.188,12,0
63.239,11,0
63.29,12,0
63.34,13,0
63.39,13,0
63.441,16,0
63.492,18,0
63.542,19,0
63.593,19,0
63.643,18,0
63.693,17,0
63.745,21,0
63.795,23,0
63.845,22,0
63.896,19,0
63.946,18,0
63.996,16,0
64.048,15,0
64.098,15,0
64.148,15,0
64.199,15,0
64.249,14,0
64.3,12,0
64.351,12,0
64.401,15,0
64.451,14,0
64.502,14,0
64.552,14,0
64.603,13,0
64.654,12,0
64.704,11,0
64.754,10,0
64.805,10,0
64.856,8,0
64.906,8,0
64.957,6,0
65.007,6,0
65.057,6,0
65.108,5,0
65.159,6,0
65.209,7,0
65.26,8,0
65.31,7,0
65.36,7,0
65.412,6,0
65.462,7,0
65.512,8,0
65.563,8,0
65.613,9,0
65.664,8,0
65.715,9,0
65.765,8,0
65.815,8,0
65.866,8,0
65.916,7,0
65.967,8,0
66.018,8,0
66.068,11,0
66.118,14,0
66.169,21,0
66.22,26,0
66.27,35,0
66.321,43,0
66.371,56,1
66.421,71,1
66.472,89,1
66.523,109,1
66.573,130,1
66.624,146,1
66.674,150,1
66.724,153,1
66.776,153,1
66.826,147,1
66.876,151,1
66.927,155,1
66.977,142,1
67.027,122,1
67.079,116,1
67.129,112,1
67.179,115,1
67.23,116,1
67.28,117,1
67.332,115,1
67.382,104,1
67.432,89,1
67.483,95,1
67.533,106,1
67.584,104,1
67.635,113,1
67.685,119,1
67.735,134,1
67.786,153,1
67.836,176,1
67.887,196,1
67.938,217,1
67.988,218,1
68.038,223,1
68.089,216,1
68.14,192,1
68.19,176,1
68.241,154,1
68.291,129,1
68.341,105,1
68.392,82,1
68.443,61,1
68.493,52,0
68.544,37,0
68.594,29,0
68.644,28,0
68.696,25,0
68.746,22,0
68.796,19,0
68.847,18,0
68.897,15,0
68.947,12,0
68.999,9,0
69.049,8,0
69.099,8,0
69.15,7,0
69.2,7,0
69.251,7,0
69.302,7,0
69.352,7,0
69.402,7,0
69.453,8,0
69.504,7,0
69.554,7,0
69.605,8,0
69.655,8,0
69.705,8,0
69.756,8,0
69.807,9,0
69.857,8,0
69.908,9,0
69.958,8,0
70.008,10,0
70.06,8,0
70.11,8,0
70.16,7,0
70.211,7,0
70.261,6,0
70.311,5,0
70.363,7,0
70.413,6,0
70.463,6,0
70.514,5,0
70.564,6,0
70.615,7,0
70.666,7,0
70.716,7,0
70.766,7,0
70.817,6,0
70.867,5,0
70.918,5,0
70.969,5,0
71.019,5,0
71.069,5,0
71.12,4,0
71.171,4,0
71.221,6,0
71.272,8,0
71.322,10,0
71.372,15,0
71.424,20,0
71.474,23,0
71.524,31,0
71.575,40,0
71.625,50,0
71.675,68,1
71.727,91,1
71.777,99,1
71.828,121,1
71.878,135,1
71.928,139,1
71.98,142,1
72.03,143,1
72.08,136,1
72.131,133,1
72.181,115,1
72.231,102,1
72.283,98,1
72.333,76,1
72.383,66,1
72.434,63,1
72.484,59,1
72.535,56,1
72.586,60,1
72.636,65,1
72.686,70,1
72.737,73,1
72.787,79,1
72.838,84,1
72.889,77,1
72.939,76,1
72.989,82,1
73.04,87,1
73.091,97,1
73.141,109,1
73.192,128,1
73.242,139,1
73.292,152,1
73.344,173,1
73.394,196,1
73.444,208,1
73.495,214,1
73.545,212,1
73.595,206,1
73.647,191,1
73.697,166,1
73.747,146,1
73.798,126,1
73.848,101,1
73.899,80,1
73.95,66,1
74.0,54,1
74.05,46,0
74.101,37,0
74.151,29,0
74.202,32,0
74.253,27,0
74.303,22,0
74.353,20,0
74.404,18,0
74.455,16,0
74.505,16,0
74.556,14,0
74.606,13,0
74.656,12,0
74.707,11,0
74.758,11,0
74.808,10,0
74.859,11,0
74.909,9,0
74.959,7,0
75.011,6,0
75.061,5,0
75.111,5,0
75.162,6,0
75.212,7,0
75.262,6,0
75.314,6,0
75.364,6,0
75.414,7,0
75.465,7,0
75.515,7,0
75.567,8,0
75.617,7,0
75.667,7,0
75.718,6,0
75.768,6,0
75.819,7,0
75.87,11,0
75.92,14,0
75.97,21,0
76.021,27,0
76.071,36,0
76.122,56,1
76.173,83,1
76.223,91,1
76.273,100,1
76.324,115,1
76.375,141,1
76.425,148,1
76.476,149,1
76.526,167,1
76.576,180,1
76.627,179,1
76.678,169,1
76.728,175,1
76.779,180,1
76.829,175,1
76.88,147,1
76.931,137,1
76.981,132,1
77.032,119,1
77.082,108,1
77.132,102,1
77.184,100,1
77.234,103,1
77.284,111,1
77.335,125,1
77.385,145,1
77.435,167,1
77.487,188,1
77.537,201,1
77.587,212,1
77.638,219,1
77.688,216,1
77.739,207,1
77.79,190,1
77.84,172,1
77.89,153,1
77.941,131,1
77.991,110,1
78.042,90,1
78.093,69,1
78.143,50,0
78.193,38,0
78.244,33,0
78.295,28,0
78.345,22,0
78.396,20,0
78.446,19,0
78.496,17,0
78.547,16,0
78.598,13,0
78.648,14,0
78.699,15,0
78.749,14,0
78.799,14,0
78.851,13,0
78.901,12,0
78.951,12,0
79.002,11,0
79.052,9,0
79.102,10,0
79.154,10,0
79.204,9,0
79.254,7,0
79.305,9,0
79.355,10,0
79.406,11,0
79.457,10,0
79.507,10,0
79.557,9,0
79.608,9,0
79.659,8,0
79.709,9,0
79.76,8,0
79.81,8,0
79.86,9,0
79.911,7,0
79.962,7,0
80.012,8,0
80.063,9,0
80.113,10,0
80.163,12,0
80.215,12,0
80.265,14,0
80.315,14,0
80.366,12,0
80.416,12,0
80.466,13,0
80.518,11,0
80.568,11,0
80.618,10,0
80.669,8,0
80.719,7,0
80.77,6,0
80.821,7,0
80.871,8,0
80.921,9,0
80.972,11,0
81.022,14,0
81.073,16,0
81.124,20,0
81.174,23,0
81.224,29,0
81.275,35,0
81.326,41,0
81.376,49,0
81.427,52,0
81.477,60,1
81.527,61,1
81.579,69,1
81.629,75,1
81.68,80,1
81.73,84,1
81.78,77,1
81.831,73,1
81.882,68,1
81.932,70,1
81.983,61,1
82.033,60,1
82.083,57,1
82.135,49,0
82.185,42,0
82.235,34,0
82.286,42,0
82.336,44,0
82.386,46,0
82.438,50,0
82.488,60,1
82.538,69,1
82.589,73,1
82.639,77,1
82.69,82,1
82.741,89,1
82.791,82,1
82.841,77,1
82.892,74,1
82.942,66,1
82.993,58,1
83.044,48,0
83.094,41,0
83.144,39,0
83.195,36,0
83.246,30,0
83.296,29,0
83.347,30,0
83.397,27,0
83.447,27,0
83.499,23,0
83.549,20,0
83.599,17,0
83.65,15,0
83.7,10,0
83.75,10,0
83.802,10,0
83.852,10,0
83.902,10,0
83.953,9,0
84.003,10,0
84.054,9,0
84.105,8,0
84.155,7,0
84.205,7,0
84.256,7,0
84.306,8,0
84.357,7,0
84.408,7,0
84.458,7,0
84.508,7,0
84.559,7,0
84.61,7,0
84.66,7,0
84.711,7,0
84.761,6,0
84.811,5,0
84.862,5,0
84.913,5,0
84.963,6,0
85.014,5,0
85.064,5,0
85.114,5,0
85.166,4,0
85.216,4,0
85.266,4,0
85.317,5,0
85.367,4,0
85.417,4,0
85.469,4,0
85.519,6,0
85.569,6,0
85.62,10,0
85.67,15,0
85.721,21,0
85.772,31,0
85.822,39,0
85.872,44,0
85.923,53,1
85.974,67,1
86.024,79,1
86.075,93,1
86.125,105,1
86.175,122,1
86.226,131,1
86.277,126,1
86.327,119,1
86.378,126,1
86.428,137,1
86.478,143,1
86.53,132,1
86.58,138,1
86.63,139,1
86.681,123,1
86.731,115,1
86.781,119,1
86.833,126,1
86.883,122,1
86.933,113,1
86.984,108,1
87.034,117,1
87.085,118,1
87.136,131,1
87.186,156,1
87.236,185,1
87.287,200,1
87.337,215,1
87.388,233,1
87.439,239,1
87.489,235,1
87.539,227,1
87.59,210,1
87.641,187,1
87.691,160,1
87.742,128,1
87.792,107,1
87.842,87,1
87.894,65,1
87.944,47,0
87.995,39,0
88.045,35,0
88.095,30,0
88.146,25,0
88.197,21,0
88.247,18,0
88.298,16,0
88.348,12,0
88.398,10,0
88.45,10,0
88.5,7,0
88.55,7,0
88.601,8,0
88.651,9,0
88.701,9,0
88.753,9,0
88.803,10,0
88.853,10,0
88.904,8,0
88.954,9,0
89.005,9,0
89.056,9,0
89.106,9,0
89.156,8,0
89.207,6,0
89.257,7,0
89.308,6,0
89.359,8,0
89.409,8,0
89.459,9,0
89.51,9,0
89.561,10,0
89.611,11,0
89.662,10,0
89.712,11,0
89.762,11,0
89.814,11,0
89.864,9,0
89.914,9,0
89.965,9,0
90.015,9,0
90.065,6,0
90.117,6,0
90.167,7,0
90.217,8,0
90.268,9,0
90.318,13,0
90.369,17,0
90.42,19,0
90.47,29,0
90.52,38,0
90.571,50,0
90.621,61,1
90.672,73,1
90.723,92,1
90.773,102,1
90.823,105,1
90.874,108,1
90.925,107,1
90.975,97,1
91.026,94,1
91.076,85,1
91.126,76,1
91.177,64,1
91.228,55,1
91.278,53,1
91.329,52,0
91.379,47,0
91.429,56,1
91.481,58,1
91.531,56,1
91.581,70,1
91.632,86,1
91.682,96,1
91.732,108,1
91.784,122,1
91.834,126,1
91.884,127,1
91.935,124,1
91.985,125,1
92.036,137,1
92.087,142,1
92.137,151,1
92.187,168,1
92.238,168,1
92.289,175,1
92.339,195,1
92.39,211,1
92.44,216,1
92.49,225,1
92.541,221,1
92.592,213,1
92.642,191,1
92.693,170,1
92.743,153,1
92.793,128,1
92.845,101,1
92.895,84,1
92.945,72,1
92.996,59,1
93.046,49,0
93.096,35,0
93.148,29,0
93.198,25,0
93.248,19,0
93.299,13,0
93.349,10,0
93.4,10,0
93.451,11,0
93.501,12,0
93.551,12,0
93.602,12,0
93.652,13,0
93.703,12,0
93.754,12,0
93.804,11,0
93.854,12,0
93.905,11,0
93.956,10,0
94.006,9,0
94.057,8,0
94.107,8,0
94.158,8,0
94.209,9,0
94.259,9,0
94.31,10,0
94.36,10,0
94.41,11,0
94.461,10,0
94.512,10,0
94.562,10,0
94.613,9,0
94.663,8,0
94.713,7,0
94.765,7,0
94.815,8,0
94.865,11,0
94.916,17,0
94.966,21,0
95.016,27,0
95.068,33,0
95.118,41,0
95.168,49,0
95.219,54,1
95.269,57,1
95.32,61,1
95.371,66,1
95.421,69,1
95.471,77,1
95.522,83,1
95.572,89,1
95.623,99,1
95.674,97,1
95.724,93,1
95.774,92,1
95.825,92,1
95.876,85,1
95.926,79,1
95.977,67,1
96.027,61,1
96.077,49,0
96.129,40,0
96.179,33,0
96.229,41,0
96.28,50,0
96.33,58,1
96.38,65,1
96.432,80,1
96.482,98,1
96.532,114,1
96.583,140,1
96.633,161,1
96.684,195,1
96.735,211,1
96.785,218,1
96.835,218,1
96.886,227,1
96.936,219,1
96.987,208,1
97.038,191,1
97.088,165,1
97.138,136,1
97.189,105,1
97.24,80,1
97.29,62,1
97.341,49,0
97.391,33,0
97.441,23,0
97.492,15,0
97.543,12,0
97.593,12,0
97.644,12,0
97.694,11,0
97.744,12,0
97.796,11,0
97.846,10,0
97.896,11,0
97.947,12,0
97.997,12,0
98.048,11,0
98.099,12,0
98.149,11,0
98.199,11,0
98.25,11,0
98.3,11,0
98.351,12,0
98.402,12,0
98.452,11,0
98.502,12,0
98.553,12,0
98.604,11,0
98.654,13,0
98.705,11,0
98.755,11,0
98.805,12,0
98.856,12,0
98.907,16,0
98.957,19,0
99.008,24,0
99.058,27,0
99.108,30,0
99.16,36,0
99.21,43,0
99.26,48,0
99.311,55,1
99.361,58,1
99.411,56,1
99.463,57,1
99.513,55,1
99.563,59,1
99.614,64,1
99.664,72,1
99.715,76,1
99.766,87,1
99.816,83,1
99.866,84,1
99.917,91,1
99.968,86,1
100.019,88,1
100.069,91,1
100.119,85,1
100.17,77,1
100.22,79,1
100.271,82,1
100.322,98,1
100.372,115,1
100.423,133,1
100.473,151,1
100.524,165,1
100.575,169,1
100.625,180,1
100.675,179,1
100.726,172,1
100.776,160,1
100.828,142,1
100.878,121,1
100.928,95,1
100.979,75,1
