time,filtered_emg,gesture
0.0,-1,0
0.05,-1,0
0.1,-1,0
0.15,-1,0
0.2,2,0
0.251,2,0
0.302,2,0
0.352,2,0
0.402,3,0
0.453,4,0
0.503,4,0
0.553,4,0
0.604,4,0
0.655,4,0
0.705,4,0
0.755,4,0
0.805,5,0
0.857,5,0
0.907,6,0
0.957,6,0
1.007,6,0
1.058,7,0
1.108,7,0
1.159,7,0
1.21,7,0
1.26,8,0
1.31,8,0
1.36,8,0
1.412,7,0
1.462,7,0
1.512,7,0
1.563,7,0
1.613,6,0
1.664,6,0
1.715,6,0
1.765,5,0
1.815,4,0
1.865,4,0
1.916,5,0
1.967,4,0
2.017,5,0
2.068,6,0
2.118,5,0
2.168,6,0
2.219,5,0
2.27,4,0
2.32,5,0
2.37,5,0
2.421,5,0
2.471,5,0
2.522,4,0
2.572,3,0
2.623,4,0
2.673,4,0
2.723,5,0
2.775,6,0
2.825,7,0
2.875,9,0
2.926,12,0
2.976,16,0
3.026,20,0
3.077,22,0
3.128,25,0
3.178,32,0
3.228,40,0
3.279,47,1
3.33,51,1
3.38,50,1
3.43,52,1
3.481,49,1
3.531,48,1
3.581,52,1
3.633,49,1
3.683,44,0
3.733,37,0
3.783,32,0
3.834,30,0
3.885,33,0
3.935,29,0
3.986,32,0
4.036,31,0
4.086,27,0
4.137,26,0
4.188,27,0
4.238,26,0
4.288,23,0
4.339,23,0
4.389,18,0
4.44,23,0
4.491,20,0
4.541,17,0
4.591,19,0
4.641,24,0
4.692,21,0
4.743,23,0
4.793,27,0
4.844,29,0
4.894,31,0
4.944,28,0
4.995,28,0
5.046,41,0
5.096,40,0
5.146,35,0
5.197,38,0
5.248,37,0
5.298,36,0
5.349,38,0
5.399,44,0
5.449,51,1
5.499,50,1
5.551,38,0
5.601,44,0
5.651,49,1
5.702,50,1
5.752,57,1
5.803,64,1
5.853,57,1
5.904,58,1
5.954,50,1
6.004,58,1
6.055,57,1
6.106,55,1
6.156,57,1
6.206,59,1
6.257,55,1
6.307,48,1
6.358,47,1
6.409,40,0
6.459,42,0
6.509,37,0
6.56,36,0
6.61,35,0
6.661,28,0
6.711,22,0
6.762,22,0
6.812,24,0
6.862,28,0
6.914,28,0
6.964,27,0
7.014,26,0
7.064,30,0
7.115,28,0
7.165,29,0
7.216,30,0
7.267,27,0
7.317,28,0
7.367,28,0
7.417,27,0
7.469,30,0
7.519,30,0
7.569,28,0
7.62,29,0
7.67,30,0
7.72,29,0
7.772,29,0
7.822,25,0
7.872,25,0
7.922,23,0
7.973,20,0
8.024,18,0
8.074,17,0
8.125,15,0
8.175,13,0
8.225,14,0
8.275,14,0
8.327,15,0
8.377,12,0
8.427,13,0
8.478,14,0
8.528,15,0
8.579,14,0
8.629,17,0
8.68,18,0
8.73,17,0
8.78,16,0
8.832,16,0
8.882,14,0
8.932,16,0
8.983,18,0
9.033,16,0
9.083,18,0
9.134,15,0
9.185,14,0
9.235,14,0
9.285,16,0
9.336,15,0
9.387,16,0
9.437,15,0
9.487,13,0
9.538,12,0
9.588,10,0
9.638,10,0
9.69,11,0
9.74,10,0
9.79,9,0
9.84,11,0
9.891,12,0
9.942,13,0
9.992,15,0
10.043,15,0
10.093,15,0
10.143,15,0
10.194,16,0
10.245,16,0
10.295,15,0
10.346,15,0
10.396,14,0
10.446,13,0
10.498,13,0
10.548,14,0
10.598,14,0
10.649,14,0
10.699,13,0
10.749,12,0
10.801,15,0
10.851,14,0
10.901,13,0
10.952,11,0
11.002,9,0
11.053,8,0
11.104,10,0
11.154,9,0
11.204,10,0
11.255,10,0
11.305,7,0
11.356,8,0
11.407,10,0
11.457,12,0
11.507,13,0
11.558,13,0
11.609,13,0
11.659,15,0
11.71,15,0
11.76,15,0
11.81,15,0
11.862,14,0
11.912,11,0
11.962,10,0
12.013,9,0
12.063,12,0
12.113,10,0
12.165,9,0
12.215,13,0
12.265,18,0
12.316,18,0
12.366,18,0
12.417,21,0
12.468,25,0
12.518,27,0
12.568,25,0
12.619,26,0
12.669,27,0
12.72,26,0
12.771,21,0
12.821,24,0
12.871,25,0
12.922,23,0
12.973,19,0
13.023,17,0
13.074,19,0
13.124,19,0
13.174,21,0
13.225,18,0
13.276,21,0
13.326,25,0
13.377,39,0
13.427,51,1
13.477,52,1
13.529,52,1
13.579,52,1
13.629,56,1
13.68,57,1
13.73,60,1
13.78,56,1
13.832,51,1
13.882,37,0
13.932,29,0
13.983,33,0
14.033,33,0
14.084,33,0
14.135,29,0
14.185,26,0
14.235,24,0
14.286,31,0
14.337,29,0
14.387,31,0
14.438,30,0
14.488,28,0
14.538,27,0
14.589,27,0
14.64,32,0
14.69,34,0
14.741,45,0
14.791,40,0
14.841,39,0
14.893,38,0
14.943,40,0
14.993,49,1
15.044,57,1
15.094,69,1
15.144,71,1
15.196,75,1
15.246,72,1
15.296,78,1
15.347,81,1
15.397,84,1
15.448,85,1
15.499,74,1
15.549,71,1
15.599,59,1
15.65,54,1
15.7,49,1
15.751,48,1
15.802,42,0
15.852,46,1
15.902,49,1
15.953,41,0
16.004,49,1
16.054,46,1
16.105,51,1
16.155,57,1
16.205,61,1
16.257,54,1
16.307,54,1
16.357,54,1
16.408,56,1
16.458,65,1
16.508,67,1
16.56,76,1
16.61,75,1
16.66,75,1
16.711,70,1
16.761,70,1
16.812,74,1
16.863,70,1
16.913,70,1
16.963,63,1
17.014,55,1
17.064,45,0
17.115,40,0
17.166,39,0
17.216,37,0
17.266,39,0
17.317,37,0
17.368,36,0
17.418,32,0
17.469,31,0
17.519,33,0
17.569,33,0
17.62,34,0
17.671,29,0
17.721,30,0
17.772,29,0
17.822,28,0
17.872,29,0
17.924,25,0
17.974,27,0
18.024,25,0
18.075,26,0
18.125,25,0
18.176,26,0
18.227,25,0
18.277,26,0
18.327,27,0
18.378,25,0
18.428,25,0
18.479,22,0
18.53,21,0
18.58,18,0
18.63,19,0
18.681,20,0
18.732,21,0
18.782,18,0
18.833,19,0
18.883,18,0
18.933,20,0
18.984,19,0
19.035,21,0
19.085,22,0
19.136,23,0
19.186,22,0
19.236,22,0
19.288,24,0
19.338,22,0
19.388,24,0
19.439,22,0
19.489,22,0
19.539,22,0
19.591,21,0
19.641,18,0
19.691,20,0
19.742,20,0
19.792,19,0
19.843,19,0
19.894,19,0
19.944,19,0
19.994,18,0
20.045,20,0
20.096,18,0
20.146,18,0
20.197,15,0
20.247,14,0
20.297,14,0
20.348,13,0
20.399,12,0
20.449,11,0
20.5,11,0
20.55,9,0
20.6,9,0
20.652,11,0
20.702,11,0
20.752,10,0
20.803,12,0
20.853,17,0
20.903,20,0
20.955,21,0
21.005,23,0
21.055,22,0
21.106,22,0
21.156,19,0
21.207,21,0
21.258,24,0
21.308,20,0
21.358,16,0
21.409,11,0
21.459,10,0
21.51,10,0
21.561,10,0
21.611,11,0
21.661,12,0
21.712,13,0
21.763,11,0
21.813,12,0
21.864,15,0
21.914,17,0
21.964,16,0
22.016,16,0
22.066,17,0
22.116,18,0
22.167,18,0
22.217,17,0
22.267,17,0
22.319,19,0
22.369,16,0
22.419,14,0
22.47,15,0
22.52,15,0
22.571,13,0
22.622,12,0
22.672,14,0
22.722,13,0
22.773,15,0
22.823,16,0
22.874,18,0
22.925,25,0
22.975,29,0
23.025,28,0
23.076,32,0
23.127,33,0
23.177,31,0
23.228,34,0
23.278,32,0
23.328,29,0
23.379,32,0
23.43,29,0
23.48,24,0
23.531,29,0
23.581,31,0
23.631,33,0
23.683,43,0
23.733,51,1
23.783,55,1
23.834,56,1
23.884,63,1
23.934,59,1
23.986,68,1
24.036,65,1
24.086,68,1
24.137,83,1
24.187,83,1
24.238,78,1
24.289,74,1
24.339,90,1
24.389,82,1
24.44,89,1
24.491,87,1
24.541,90,1
24.592,93,1
24.642,84,1
24.692,81,1
24.743,74,1
24.794,75,1
24.844,68,1
24.895,71,1
24.945,72,1
24.995,71,1
25.047,74,1
25.097,73,1
25.147,75,1
25.198,73,1
25.248,87,1
25.298,94,1
25.35,91,1
25.4,88,1
25.45,86,1
25.501,85,1
25.551,79,1
25.602,69,1
25.653,58,1
25.703,61,1
25.753,51,1
25.804,44,0
25.854,45,0
25.905,49,1
25.956,51,1
26.006,54,1
26.056,59,1
26.107,65,1
26.158,68,1
26.208,64,1
26.259,62,1
26.309,61,1
26.359,56,1
26.411,50,1
26.461,45,0
26.511,37,0
26.562,30,0
26.612,28,0
26.662,28,0
26.714,25,0
26.764,26,0
26.814,26,0
26.865,24,0
26.915,22,0
26.966,19,0
27.017,19,0
27.067,20,0
27.117,16,0
27.168,12,0
27.218,14,0
27.269,12,0
27.32,12,0
27.37,15,0
27.42,15,0
27.471,18,0
27.522,19,0
27.572,19,0
27.623,23,0
27.673,25,0
27.723,27,0
27.774,29,0
27.825,29,0
27.875,25,0
27.926,26,0
27.976,24,0
28.026,22,0
28.078,21,0
28.128,19,0
28.178,18,0
28.229,15,0
28.279,13,0
28.329,15,0
28.381,16,0
28.431,19,0
28.481,19,0
28.532,20,0
28.582,19,0
28.633,18,0
28.684,19,0
28.734,19,0
28.784,18,0
28.835,18,0
28.886,20,0
28.936,19,0
28.987,19,0
29.037,22,0
29.087,22,0
29.138,22,0
29.189,20,0
29.239,20,0
29.29,21,0
29.34,21,0
29.39,17,0
29.442,17,0
29.492,17,0
29.542,15,0
29.593,15,0
29.643,18,0
29.693,20,0
29.745,20,0
29.795,20,0
29.845,18,0
29.896,20,0
29.946,18,0
29.997,16,0
30.048,16,0
30.098,17,0
30.148,15,0
30.199,15,0
30.249,15,0
30.3,16,0
30.351,19,0
30.401,17,0
30.451,17,0
30.502,19,0
30.553,18,0
30.603,19,0
30.654,18,0
30.704,18,0
30.754,18,0
30.806,17,0
30.856,15,0
30.906,18,0
30.957,21,0
31.007,19,0
31.057,18,0
31.109,20,0
31.159,19,0
31.209,19,0
31.26,19,0
31.31,21,0
31.361,24,0
31.412,22,0
31.462,20,0
31.512,23,0
31.563,32,0
31.613,39,0
31.664,39,0
31.715,40,0
31.765,45,0
31.815,45,0
31.866,42,0
31.917,51,1
31.967,53,1
32.018,58,1
32.068,53,1
32.118,52,1
32.169,57,1
32.22,57,1
32.27,58,1
32.321,65,1
32.371,68,1
32.421,61,1
32.473,59,1
32.523,50,1
32.573,45,0
32.624,46,1
32.674,43,0
32.724,45,0
32.776,44,0
32.826,45,0
32.876,43,0
32.927,41,0
32.977,45,0
33.028,50,1
33.079,51,1
33.129,43,0
33.179,43,0
33.23,43,0
33.281,39,0
33.331,29,0
33.382,29,0
33.432,30,0
33.482,26,0
33.533,22,0
33.584,21,0
33.634,25,0
33.685,35,0
33.735,34,0
33.785,45,0
33.837,52,1
33.887,53,1
33.937,67,1
33.988,76,1
34.038,82,1
34.088,88,1
34.14,86,1
34.19,76,1
34.24,80,1
34.291,69,1
34.341,71,1
34.392,76,1
34.443,69,1
34.493,68,1
34.543,65,1
34.594,60,1
34.644,66,1
34.695,69,1
34.746,67,1
34.796,72,1
34.846,68,1
34.897,64,1
34.948,56,1
34.998,49,1
35.049,49,1
35.099,50,1
35.149,49,1
35.201,49,1
35.251,50,1
35.301,43,0
35.352,41,0
35.402,39,0
35.452,40,0
35.504,37,0
35.554,36,0
35.604,39,0
35.655,37,0
35.705,35,0
35.756,31,0
35.807,34,0
35.857,31,0
35.907,32,0
35.958,33,0
36.008,33,0
36.059,31,0
36.11,26,0
36.16,22,0
36.21,18,0
36.261,16,0
36.312,14,0
36.362,15,0
36.413,15,0
36.463,19,0
36.513,19,0
36.564,18,0
36.615,20,0
36.665,24,0
36.716,28,0
36.766,32,0
36.816,30,0
36.868,32,0
36.918,31,0
36.968,26,0
37.019,28,0
37.069,28,0
37.12,30,0
37.171,25,0
37.221,21,0
37.271,19,0
37.322,20,0
37.372,18,0
37.423,18,0
37.474,20,0
37.524,16,0
37.574,18,0
37.625,17,0
37.676,16,0
37.726,16,0
37.777,16,0
37.827,15,0
37.877,14,0
37.928,13,0
37.979,11,0
38.029,11,0
38.08,10,0
38.13,9,0
38.18,9,0
38.232,10,0
38.282,10,0
38.332,11,0
38.383,11,0
38.433,13,0
38.483,14,0
38.535,14,0
38.585,13,0
38.635,13,0
38.686,13,0
38.736,12,0
38.787,13,0
38.838,15,0
38.888,17,0
38.938,16,0
38.989,19,0
39.04,19,0
39.09,18,0
39.141,20,0
39.191,22,0
39.241,25,0
39.292,23,0
39.343,23,0
39.393,22,0
39.444,26,0
39.494,26,0
39.544,28,0
39.596,28,0
39.646,27,0
39.696,25,0
39.747,25,0
39.797,24,0
39.847,24,0
39.899,26,0
39.949,24,0
39.999,24,0
40.05,25,0
40.1,24,0
40.151,24,0
40.202,27,0
40.252,28,0
40.302,34,0
40.353,31,0
40.403,30,0
40.454,31,0
40.505,29,0
40.555,29,0
40.605,33,0
40.656,36,0
40.707,36,0
40.757,32,0
40.808,29,0
40.858,34,0
40.908,33,0
40.96,32,0
41.01,38,0
41.06,35,0
41.111,32,0
41.161,33,0
41.211,31,0
41.263,33,0
41.313,29,0
41.363,24,0
41.414,24,0
41.464,22,0
41.515,18,0
41.566,20,0
41.616,20,0
41.666,19,0
41.717,21,0
41.767,23,0
41.818,23,0
41.869,25,0
41.919,25,0
41.969,28,0
42.02,29,0
42.071,30,0
42.121,30,0
42.172,32,0
42.222,29,0
42.272,27,0
42.323,32,0
42.374,30,0
42.424,35,0
42.475,32,0
42.525,31,0
42.575,29,0
42.627,28,0
42.677,25,0
42.727,33,0
42.778,33,0
42.828,37,0
42.878,40,0
42.93,44,0
42.98,45,0
43.03,42,0
43.081,40,0
43.131,44,0
43.182,47,1
43.233,46,1
43.283,52,1
43.333,49,1
43.384,49,1
43.435,44,0
43.485,51,1
43.536,56,1
43.586,61,1
43.636,59,1
43.687,55,1
43.738,49,1
43.788,47,1
43.839,44,0
43.889,43,0
43.939,45,0
43.991,46,1
44.041,53,1
44.091,53,1
44.142,65,1
44.192,79,1
44.242,93,1
44.294,98,1
44.344,103,1
44.394,108,1
44.445,110,1
44.495,105,1
44.546,97,1
44.597,92,1
44.647,79,1
44.697,65,1
44.748,49,1
44.798,39,0
44.85,32,0
44.9,25,0
44.95,17,0
45.001,13,0
45.051,9,0
45.102,7,0
45.153,7,0
45.203,6,0
45.253,6,0
45.304,5,0
45.355,5,0
45.405,6,0
45.456,5,0
45.506,5,0
45.556,6,0
45.607,7,0
45.658,7,0
45.708,7,0
45.759,8,0
45.809,10,0
45.859,11,0
45.911,10,0
45.961,11,0
46.011,12,0
46.062,11,0
46.112,11,0
46.162,10,0
46.214,11,0
46.264,10,0
46.314,10,0
46.365,8,0
46.415,9,0
46.466,9,0
46.517,9,0
46.567,10,0
46.617,10,0
46.668,12,0
46.718,12,0
46.769,13,0
46.82,11,0
46.87,12,0
46.92,12,0
46.971,11,0
47.022,9,0
47.072,10,0
47.123,8,0
47.173,6,0
47.223,5,0
47.275,5,0
47.325,6,0
47.375,5,0
47.426,6,0
47.476,6,0
47.526,7,0
47.578,6,0
47.628,6,0
47.678,6,0
47.729,7,0
47.779,6,0
47.83,5,0
47.881,5,0
47.931,5,0
47.981,4,0
48.032,5,0
48.082,6,0
48.133,7,0
48.184,7,0
48.234,6,0
48.284,6,0
48.335,6,0
48.386,6,0
48.436,7,0
48.487,6,0
48.537,6,0
48.587,7,0
48.638,6,0
48.689,6,0
48.739,6,0
48.79,7,0
48.84,8,0
48.89,8,0
48.942,8,0
48.992,8,0
49.042,7,0
49.093,6,0
49.143,6,0
49.193,7,0
49.245,6,0
49.295,5,0
49.345,5,0
49.396,5,0
49.446,5,0
49.497,6,0
49.548,6,0
49.598,6,0
49.648,6,0
49.699,6,0
49.75,7,0
49.8,7,0
49.851,8,0
49.901,8,0
49.951,8,0
50.002,9,0
50.053,11,0
50.103,12,0
50.154,13,0
50.204,17,0
50.254,20,0
50.306,21,0
50.356,22,0
50.406,27,0
50.457,27,0
50.507,34,0
50.557,36,0
50.609,47,1
50.659,47,1
50.709,44,0
50.76,40,0
50.81,43,0
50.861,44,0
50.912,40,0
50.962,39,0
51.012,30,0
51.063,30,0
51.113,29,0
51.164,30,0
51.215,37,0
51.265,43,0
51.315,46,1
51.366,45,0
51.417,50,1
51.467,54,1
51.518,53,1
51.568,54,1
51.618,47,1
51.67,47,1
51.72,41,0
51.77,48,1
51.821,47,1
51.871,48,1
51.921,54,1
51.973,51,1
52.023,68,1
52.073,80,1
52.124,77,1
52.174,80,1
52.225,81,1
52.276,73,1
52.326,78,1
52.376,76,1
52.427,77,1
52.477,87,1
52.528,84,1
52.579,88,1
52.629,101,1
52.679,103,1
52.73,121,1
52.781,129,1
52.831,132,1
52.882,143,1
52.932,140,1
52.982,141,1
53.033,141,1
53.084,123,1
53.134,110,1
53.185,103,1
53.235,84,1
53.285,71,1
53.337,60,1
53.387,48,1
53.437,40,0
53.488,28,0
53.538,14,0
53.588,16,0
53.64,14,0
53.69,15,0
53.74,16,0
53.791,16,0
53.841,15,0
53.892,14,0
53.943,15,0
53.993,19,0
54.043,22,0
54.094,22,0
54.145,23,0
54.195,23,0
54.246,20,0
54.296,21,0
54.346,21,0
54.397,22,0
54.448,23,0
54.498,20,0
54.549,17,0
54.599,14,0
54.649,13,0
54.701,14,0
54.751,16,0
54.801,13,0
54.852,12,0
54.902,11,0
54.952,8,0
55.004,9,0
55.054,8,0
55.104,9,0
55.155,10,0
55.205,9,0
55.256,8,0
55.307,9,0
55.357,10,0
55.407,12,0
55.458,12,0
55.508,13,0
55.559,13,0
55.61,14,0
55.66,15,0
55.71,14,0
55.761,14,0
55.812,13,0
55.862,12,0
55.913,12,0
55.963,11,0
56.013,11,0
56.065,10,0
56.115,11,0
56.165,13,0
56.216,12,0
56.266,11,0
56.316,12,0
56.368,11,0
56.418,11,0
56.468,11,0
56.519,10,0
56.569,11,0
56.62,9,0
56.671,8,0
56.721,8,0
56.771,9,0
56.822,9,0
56.872,10,0
56.923,10,0
56.974,9,0
57.024,10,0
57.074,11,0
57.125,12,0
57.176,12,0
57.226,12,0
57.277,13,0
57.327,13,0
57.377,11,0
57.428,12,0
57.479,11,0
57.529,11,0
57.58,13,0
57.63,14,0
57.68,19,0
57.732,21,0
57.782,22,0
57.832,25,0
57.883,42,0
57.933,59,1
57.985,75,1
58.035,91,1
58.085,120,1
58.136,128,1
58.186,161,1
58.236,184,1
58.288,204,1
58.338,217,1
58.388,209,1
58.439,194,1
58.489,179,1
58.54,177,1
58.591,148,1
58.641,145,1
58.691,116,1
58.742,98,1
58.792,77,1
58.843,62,1
58.894,61,1
58.944,66,1
58.994,69,1
59.045,58,1
59.096,65,1
59.146,69,1
59.197,73,1
59.247,73,1
59.297,72,1
59.348,82,1
59.399,90,1
59.449,100,1
59.5,118,1
59.55,120,1
59.6,133,1
59.652,139,1
59.702,139,1
59.752,143,1
59.803,158,1
59.853,153,1
59.904,144,1
59.955,133,1
60.005,122,1
60.055,118,1
60.106,103,1
60.156,85,1
60.207,76,1
60.258,71,1
60.308,57,1
60.358,55,1
60.409,52,1
60.46,49,1
60.51,40,0
60.561,39,0
60.611,32,0
60.661,31,0
60.712,27,0
60.763,22,0
60.813,22,0
60.864,18,0
60.914,17,0
60.964,13,0
61.016,14,0
61.066,13,0
61.117,15,0
61.167,15,0
61.217,15,0
61.268,14,0
61.319,13,0
61.369,14,0
61.42,13,0
61.47,13,0
61.52,12,0
61.572,11,0
61.622,10,0
61.672,9,0
61.723,10,0
61.773,11,0
61.824,12,0
61.875,14,0
61.925,17,0
61.975,18,0
62.026,17,0
62.076,18,0
62.127,17,0
62.178,19,0
62.228,21,0
62.278,22,0
62.329,21,0
62.38,18,0
62.43,15,0
62.481,13,0
62.531,14,0
62.581,15,0
62.632,15,0
62.683,13,0
62.733,11,0
62.784,9,0
62.834,8,0
62.884,9,0
62.936,9,0
62.986,10,0
63.036,10,0
63.087,9,0
63.137,10,0
63.187,11,0
63.239,12,0
63.289,12,0
63.339,12,0
63.39,13,0
63.44,14,0
63.491,13,0
63.542,13,0
63.592,12,0
63.642,10,0
63.693,10,0
63.744,10,0
63.794,10,0
63.845,10,0
63.895,9,0
63.945,8,0
63.996,7,0
64.047,7,0
64.097,8,0
64.148,9,0
64.198,11,0
64.248,16,0
64.3,25,0
64.35,29,0
64.4,34,0
64.451,37,0
64.501,53,1
64.551,53,1
64.603,60,1
64.653,61,1
64.703,60,1
64.754,60,1
64.804,50,1
64.855,49,1
64.906,56,1
64.956,60,1
65.006,57,1
65.057,60,1
65.107,56,1
65.158,66,1
65.209,66,1
65.259,76,1
65.309,95,1
65.36,109,1
65.411,120,1
65.461,124,1
65.512,113,1
65.562,118,1
65.612,130,1
65.664,141,1
65.714,165,1
65.764,166,1
65.815,172,1
65.865,175,1
65.915,172,1
65.967,181,1
66.017,198,1
66.067,209,1
66.118,213,1
66.168,201,1
66.219,184,1
66.27,171,1
66.32,152,1
66.37,133,1
66.421,115,1
66.471,94,1
66.522,77,1
66.573,58,1
66.623,38,0
66.673,28,0
66.724,19,0
66.775,15,0
66.825,10,0
66.876,9,0
66.926,7,0
66.976,8,0
67.027,6,0
67.078,5,0
67.128,5,0
67.179,6,0
67.229,5,0
67.279,5,0
67.331,5,0
67.381,4,0
67.431,5,0
67.482,5,0
67.532,6,0
67.582,6,0
67.634,7,0
67.684,7,0
67.734,7,0
67.785,8,0
67.835,8,0
67.886,8,0
67.937,8,0
67.987,9,0
68.037,8,0
68.088,9,0
68.139,9,0
68.189,9,0
68.24,10,0
68.29,9,0
68.34,9,0
68.391,9,0
68.442,10,0
68.492,12,0
68.543,13,0
68.593,13,0
68.643,14,0
68.695,14,0
68.745,14,0
68.795,14,0
68.846,14,0
68.896,13,0
68.946,13,0
68.998,11,0
69.048,10,0
69.098,9,0
69.149,8,0
69.199,7,0
69.25,6,0
69.301,7,0
69.351,7,0
69.401,8,0
69.452,8,0
69.502,7,0
69.553,8,0
69.604,9,0
69.654,8,0
69.704,8,0
69.755,8,0
69.806,7,0
69.856,6,0
69.907,6,0
69.957,6,0
70.007,7,0
70.059,5,0
70.109,4,0
70.159,5,0
70.21,6,0
70.26,7,0
70.31,8,0
70.362,8,0
70.412,7,0
70.463,8,0
70.513,8,0
70.563,8,0
70.615,8,0
70.665,9,0
70.715,8,0
70.766,7,0
70.816,7,0
70.866,7,0
70.918,7,0
70.968,5,0
71.018,5,0
71.069,5,0
71.119,7,0
71.17,7,0
71.221,7,0
71.271,8,0
71.321,7,0
71.372,8,0
71.422,9,0
71.473,10,0
71.524,10,0
71.574,10,0
71.624,9,0
71.675,10,0
71.726,10,0
71.776,10,0
71.827,9,0
71.877,11,0
71.927,17,0
71.979,40,0
72.029,43,0
72.079,47,1
72.13,58,1
72.18,67,1
72.23,86,1
72.282,99,1
72.332,100,1
72.382,119,1
72.433,114,1
72.483,92,1
72.534,103,1
72.585,114,1
72.635,121,1
72.685,128,1
72.736,124,1
72.786,127,1
72.837,136,1
72.888,119,1
72.938,122,1
72.988,120,1
73.039,107,1
73.09,96,1
73.14,90,1
73.191,92,1
73.241,78,1
73.291,68,1
73.342,63,1
73.393,64,1
73.443,70,1
73.494,89,1
73.544,92,1
73.594,93,1
73.646,98,1
73.696,103,1
73.746,128,1
73.797,156,1
73.847,180,1
73.897,205,1
73.949,223,1
73.999,226,1
74.049,240,1
74.1,246,1
74.15,237,1
74.201,222,1
74.252,197,1
74.302,165,1
74.352,138,1
74.403,107,1
74.454,78,1
74.504,57,1
74.555,41,0
74.605,28,0
74.655,19,0
74.706,11,0
74.757,12,0
74.807,11,0
74.858,10,0
74.908,11,0
74.959,11,0
75.01,11,0
75.06,10,0
75.111,10,0
75.161,10,0
75.211,11,0
75.262,10,0
75.313,9,0
75.363,8,0
75.414,7,0
75.464,8,0
75.514,7,0
75.566,7,0
75.616,7,0
75.666,7,0
75.717,6,0
75.767,5,0
75.817,6,0
75.869,5,0
75.919,7,0
75.969,7,0
76.02,9,0
76.07,8,0
76.121,9,0
76.172,10,0
76.222,10,0
76.272,11,0
76.323,15,0
76.374,20,0
76.424,22,0
76.475,25,0
76.525,25,0
76.575,28,0
76.626,30,0
76.677,57,1
76.727,92,1
76.778,117,1
76.828,139,1
76.878,158,1
76.93,165,1
76.98,165,1
77.03,173,1
77.081,182,1
77.131,179,1
77.181,156,1
77.233,131,1
77.283,121,1
77.333,110,1
77.384,93,1
77.434,84,1
77.485,80,1
77.536,79,1
77.586,69,1
77.636,69,1
77.687,79,1
77.737,82,1
77.788,74,1
77.839,60,1
77.889,59,1
77.939,67,1
77.99,65,1
78.041,73,1
78.091,88,1
78.142,108,1
78.192,112,1
78.242,118,1
78.294,130,1
78.344,151,1
78.394,163,1
78.445,174,1
78.495,181,1
78.545,178,1
78.597,169,1
78.647,155,1
78.697,140,1
78.748,122,1
78.798,101,1
78.849,79,1
78.9,61,1
78.95,46,1
79.0,38,0
79.051,31,0
79.101,24,0
79.152,18,0
79.203,17,0
79.253,19,0
79.303,21,0
79.354,24,0
79.405,23,0
79.455,23,0
79.506,26,0
79.556,23,0
79.606,24,0
79.657,21,0
79.708,21,0
79.758,19,0
79.809,18,0
79.859,14,0
79.909,14,0
79.961,11,0
80.011,10,0
80.061,10,0
80.112,9,0
80.162,10,0
80.212,10,0
80.264,11,0
80.314,12,0
80.364,13,0
80.415,14,0
80.465,15,0
80.516,15,0
80.567,14,0
80.617,13,0
80.667,12,0
80.718,11,0
80.769,10,0
80.819,8,0
80.87,7,0
80.92,6,0
80.97,6,0
81.021,5,0
81.072,6,0
81.122,5,0
81.173,7,0
81.223,8,0
81.273,7,0
81.325,7,0
81.375,7,0
81.425,9,0
81.476,9,0
81.526,10,0
81.577,9,0
81.628,10,0
81.678,9,0
81.729,14,0
81.779,14,0
81.829,14,0
81.881,15,0
81.931,17,0
81.981,21,0
82.032,26,0
82.082,28,0
82.132,29,0
82.184,30,0
82.234,25,0
82.284,25,0
82.335,25,0
82.385,29,0
82.436,42,0
82.487,39,0
82.537,46,1
82.587,61,1
82.638,66,1
82.689,77,1
82.739,78,1
82.79,91,1
82.84,105,1
82.89,104,1
82.941,101,1
82.992,117,1
83.042,109,1
83.093,103,1
83.143,103,1
83.193,99,1
83.245,107,1
83.295,112,1
83.345,109,1
83.396,122,1
83.446,121,1
83.496,122,1
83.548,125,1
83.598,124,1
83.648,127,1
83.699,125,1
83.749,122,1
83.8,112,1
83.851,107,1
83.901,96,1
83.951,90,1
84.002,76,1
84.052,73,1
84.103,68,1
84.154,63,1
84.204,58,1
84.254,52,1
84.305,45,0
84.356,40,0
84.406,33,0
84.457,27,0
84.507,23,0
84.557,18,0
84.609,12,0
84.659,11,0
84.709,9,0
84.76,8,0
84.81,9,0
84.86,9,0
84.912,8,0
84.962,7,0
85.012,7,0
85.063,7,0
85.113,7,0
85.164,6,0
85.215,7,0
85.265,9,0
85.315,9,0
85.366,8,0
85.416,7,0
85.467,8,0
85.518,9,0
85.568,11,0
85.618,10,0
85.669,10,0
85.72,9,0
85.77,8,0
85.821,8,0
85.871,8,0
85.921,8,0
85.972,7,0
86.023,5,0
86.073,4,0
86.124,5,0
86.174,4,0
86.224,5,0
86.276,5,0
86.326,6,0
86.376,6,0
86.427,7,0
86.477,7,0
86.528,9,0
86.579,10,0
86.629,11,0
86.679,11,0
86.73,12,0
86.78,11,0
86.831,9,0
86.882,9,0
86.932,11,0
86.982,16,0
87.033,24,0
87.084,29,0
87.134,33,0
87.185,39,0
87.235,46,1
87.285,65,1
87.336,85,1
87.387,105,1
87.437,137,1
87.488,135,1
87.538,128,1
87.588,132,1
87.64,147,1
87.69,162,1
87.74,167,1
87.791,158,1
87.841,143,1
87.891,143,1
87.943,111,1
87.993,117,1
88.043,118,1
88.094,108,1
88.144,97,1
88.195,85,1
88.246,81,1
88.296,88,1
88.346,101,1
88.397,104,1
88.448,125,1
88.498,140,1
88.549,142,1
88.599,154,1
88.649,150,1
88.7,152,1
88.751,152,1
88.801,141,1
88.852,134,1
88.902,126,1
88.952,113,1
89.004,101,1
89.054,108,1
89.104,107,1
89.155,112,1
89.205,107,1
89.256,98,1
89.307,95,1
89.357,85,1
89.408,71,1
89.458,60,1
89.508,49,1
89.56,40,0
89.61,32,0
89.66,23,0
89.711,22,0
89.761,23,0
89.811,22,0
89.863,21,0
89.913,24,0
89.963,23,0
90.014,20,0
90.064,20,0
90.115,16,0
90.166,16,0
90.216,12,0
90.266,10,0
90.317,8,0
90.368,7,0
90.418,7,0
90.469,10,0
90.519,14,0
90.569,15,0
90.62,16,0
90.671,14,0
90.721,15,0
90.772,16,0
90.822,17,0
90.872,18,0
90.924,16,0
90.974,15,0
91.024,12,0
91.075,9,0
91.125,10,0
91.175,9,0
91.227,8,0
91.277,8,0
91.327,6,0
91.378,5,0
91.428,6,0
91.479,5,0
91.53,6,0
91.58,9,0
91.63,11,0
91.681,13,0
91.731,15,0
91.782,15,0
91.833,21,0
91.883,27,0
91.933,37,0
91.984,48,1
92.035,56,1
92.085,73,1
92.136,85,1
92.186,100,1
92.236,124,1
92.288,141,1
92.338,161,1
92.388,187,1
92.439,189,1
92.489,202,1
92.539,210,1
92.591,193,1
92.641,190,1
92.691,179,1
92.742,160,1
92.792,146,1
92.844,125,1
92.894,97,1
92.944,88,1
92.995,65,1
93.045,53,1
93.095,58,1
93.147,62,1
93.197,76,1
93.247,98,1
93.298,116,1
93.348,138,1
93.399,160,1
93.45,174,1
93.5,192,1
93.55,205,1
93.601,209,1
93.651,207,1
93.702,200,1
93.753,180,1
93.803,165,1
93.854,141,1
93.904,116,1
93.955,103,1
94.006,88,1
94.056,71,1
94.106,60,1
94.157,47,1
94.208,36,0
94.258,29,0
94.309,21,0
94.359,19,0
94.409,21,0
94.46,17,0
94.511,14,0
94.561,13,0
94.612,14,0
94.662,15,0
94.712,15,0
94.764,14,0
94.814,17,0
94.864,20,0
94.915,18,0
94.965,21,0
95.015,21,0
95.067,22,0
95.117,21,0
95.167,20,0
95.218,20,0
95.268,20,0
95.319,19,0
95.37,15,0
95.42,15,0
95.47,12,0
95.521,12,0
95.571,12,0
95.622,13,0
95.673,13,0
95.723,12,0
95.773,12,0
95.824,11,0
95.875,12,0
95.925,12,0
95.976,12,0
96.026,12,0
96.076,11,0
96.128,9,0
96.178,8,0
96.228,8,0
96.279,8,0
96.329,8,0
96.379,8,0
96.431,6,0
96.481,6,0
96.531,7,0
96.582,6,0
96.632,6,0
96.683,6,0
96.734,6,0
96.784,5,0
96.834,6,0
96.885,7,0
96.935,7,0
96.986,8,0
97.037,7,0
97.087,6,0
97.137,7,0
97.188,8,0
97.239,9,0
97.289,13,0
97.34,19,0
97.39,32,0
97.44,41,0
97.491,56,1
97.542,73,1
97.592,90,1
97.643,115,1
97.693,149,1
97.743,153,1
97.795,172,1
97.845,178,1
97.895,170,1
97.946,169,1
97.996,156,1
98.046,152,1
98.098,148,1
98.148,132,1
98.199,104,1
98.249,106,1
98.299,85,1
98.351,81,1
98.401,91,1
98.451,102,1
98.502,122,1
98.552,136,1
98.603,153,1
98.654,174,1
98.704,194,1
98.754,213,1
98.805,235,1
98.855,243,1
98.906,244,1
98.957,236,1
99.007,218,1
99.057,195,1
99.108,165,1
99.159,134,1
99.209,107,1
99.26,81,1
99.31,58,1
99.36,40,0
99.411,25,0
99.462,13,0
99.512,8,0
99.563,6,0
99.613,7,0
99.663,8,0
99.715,7,0
99.765,8,0
99.815,9,0
99.866,9,0
99.916,9,0
99.966,9,0
100.018,10,0
100.068,9,0
100.118,8,0
100.169,8,0
100.219,8,0
100.271,8,0
100.321,6,0
100.371,6,0
100.422,6,0
100.472,6,0
100.523,8,0
100.574,7,0
100.624,6,0
100.675,8,0
100.725,9,0
100.775,10,0
100.827,11,0
100.877,12,0
100.927,13,0
100.978,12,0
