0,217
1,217
2,216
4,215
5,219
6,218
7,218
9,219
10,219
11,222
13,219
16,224
24,230
32,223
40,223
49,223
58,226
66,221
74,226
82,225
91,224
99,221
107,219
116,220
126,213
136,220
145,223
154,228
163,235
173,237
182,235
192,231
201,228
210,222
220,221
229,216
238,218
247,213
258,213
267,218
276,218
285,218
294,215
304,214
313,213
323,214
332,209
342,212
351,218
360,221
369,216
378,218
389,213
398,215
407,212
416,210
425,206
435,201
444,199
454,196
463,197
473,209
482,218
491,214
500,219
509,212
520,211
529,209
538,208
547,206
557,211
566,208
575,218
585,225
594,233
604,238
613,242
622,241
631,232
641,231
651,226
660,227
669,219
678,219
688,212
697,211
706,210
716,210
726,204
735,200
744,199
753,192
762,188
772,184
781,182
791,182
800,186
809,186
819,187
828,183
837,184
846,182
857,181
866,180
875,180
884,176
893,171
903,172
912,168
922,171
931,171
941,171
950,171
959,177
968,173
977,176
988,171
997,172
1006,176
1016,177
1027,176
1037,179
1047,175
1058,176
1069,174
1079,173
1089,170
1099,172
1110,173
1121,176
1131,176
1141,178
1152,177
1162,179
1172,183
1183,182
1193,184
1204,187
1214,186
1224,185
1234,184
1245,182
1256,187
1266,186
1276,185
1287,181
1297,191
1307,194
1318,200
1329,202
1339,210
1349,206
1359,202
1370,210
1380,207
1391,203
1401,199
1412,193
1422,192
1432,191
1442,189
1454,191
1464,188
1474,188
1484,187
1495,198
1505,197
1516,198
1526,190
1537,189
1547,184
1557,183
1567,179
1577,181
1589,187
1599,188
1609,200
1619,205
1630,209
1640,208
1651,206
1661,202
1672,203
1682,205
1692,201
1702,210
1713,224
1724,223
1734,221
1744,213
1755,209
1765,211
1775,206
1786,219
1797,231
1807,234
1817,244
1827,243
1838,235
1849,224
1859,224
1869,225
1880,225
1890,222
1900,220
1910,222
1922,216
1932,227
1942,237
1952,245
1963,244
1973,237
1984,231
1994,223
2004,220
2015,224
2025,226
2035,242
2045,237
2057,225
2067,221
2077,218
2087,217
2098,218
2108,214
2119,218
2129,226
2140,218
2150,235
2160,244
2170,258
2182,253
2192,255
2202,253
2212,238
2223,238
2233,228
2243,233
2254,230
2265,232
2275,231
2285,221
2295,218
2306,210
2317,215
2327,212
2337,214
2348,208
2358,215
2368,221
2378,240
2390,267
2400,269
2410,271
2420,261
2430,261
2441,268
2452,284
2462,293
2472,325
2483,334
2493,316
2503,309
2514,297
2525,289
2535,285
2545,281
2555,281
2566,289
2576,299
2587,319
2597,323
2608,331
2618,320
2628,313
2638,301
2650,302
2660,291
2670,283
2680,286
2691,300
2701,300
2711,307
2722,297
2733,285
2743,267
2753,261
2763,250
2774,246
2785,241
2795,239
2805,232
2816,227
2826,225
2836,219
2847,223
2857,224
2868,239
2878,240
2888,238
2898,237
2909,240
2920,231
2930,231
2940,224
2951,223
2961,222
2971,225
2982,221
2993,222
3003,222
3013,224
3023,222
3034,223
3044,215
3055,218
3065,219
3076,222
3086,228
3096,235
3106,246
3118,241
3128,233
3138,230
3148,228
3159,226
3169,224
3180,222
3190,222
3201,227
3211,235
3221,244
3231,246
3241,239
3253,241
3263,235
3273,233
3283,225
3294,223
3304,234
3315,229
3325,230
3336,229
3346,230
3356,227
3366,226
3377,221
3388,222
3398,214
3408,217
3419,210
3429,220
3439,208
3450,219
3461,213
3471,219
3481,223
3491,225
3502,220
3513,221
3523,216
3533,216
3544,216
3554,215
3564,212
3574,209
3586,211
3596,209
3606,210
3616,205
3627,209
3637,205
3648,214
3658,206
3668,205
3679,203
3689,210
3699,213
3709,220
3721,225
3731,227
3741,222
3751,218
3762,208
3772,206
3783,205
3793,204
3804,215
3814,212
3824,209
3834,204
3846,202
3856,204
3866,215
3876,212
3887,211
3897,206
3907,202
3918,199
3929,194
3939,197
3949,199
3959,213
3970,215
3981,211
3991,208
4001,203
4012,201
4022,200
4032,198
4042,198
4054,199
4064,196
4074,194
4084,192
4094,195
4105,208
4116,218
4126,220
4136,213
4147,212
4157,201
4167,195
4178,186
4189,181
4199,177
4209,175
4219,175
4230,171
4240,163
4251,159
4261,157
4272,151
4282,152
4292,151
4302,147
4314,143
4324,140
4334,136
4344,134
4355,129
4365,128
4375,125
4386,122
4397,116
4407,117
4417,115
4427,120
4438,117
4449,118
4459,115
4469,116
4480,111
4490,109
4500,112
4511,113
4521,115
4532,114
4542,117
4552,117
4562,119
4573,117
4584,121
4594,121
4604,126
4615,123
4625,124
4635,120
4646,119
4657,120
4667,118
4677,115
4687,114
4698,115
4708,117
4719,116
4729,116
4740,118
4750,115
4760,115
4770,114
4782,114
4792,113
4802,115
4812,114
4823,116
4833,115
4844,118
4854,110
4865,108
4875,106
4885,109
4895,108
4905,108
4917,109
4927,111
4937,109
4947,107
4958,102
4968,100
4979,104
4989,103
5000,107
5010,109
5020,111
5030,112
5041,112
5052,112
5062,112
5072,111
5083,116
5093,114
5103,119
5114,115
5125,113
5135,106
5145,105
5155,106
5166,109
5177,109
5187,110
5197,110
5208,110
5218,109
5228,109
5238,109
5250,109
5260,112
5270,113
5280,114
5291,116
5301,118
5312,113
5322,110
5332,106
5343,109
5353,108
5363,112
5373,112
5385,114
5395,113
5405,113
5415,111
5426,111
5436,110
5447,113
5457,114
5468,113
5478,114
5488,114
5498,114
5510,115
5520,116
5530,115
5540,119
5551,117
5561,120
5571,117
5582,116
5593,114
5603,117
5613,116
5623,118
5634,115
5645,114
5655,110
5665,111
5676,110
5686,111
5696,109
5706,106
5718,106
5728,105
5738,105
5748,106
5758,113
5769,112
5780,117
5790,116
5800,117
5811,117
5821,122
5831,124
5842,133
5853,137
5863,148
5873,159
5883,169
5894,174
5904,195
5915,207
5925,208
5936,226
5946,228
5956,225
5966,220
5978,224
5988,221
5998,222
6008,215
6019,218
6029,221
6039,220
6050,216
6061,224
6071,225
6081,230
6091,231
6102,231
6113,228
6123,229
6133,221
6144,220
6154,219
6164,218
6175,226
6185,238
6196,230
6206,243
6216,255
6226,252
6237,249
6248,237
6258,264
6268,273
6279,276
6289,271
6299,269
6310,273
6321,269
6331,252
6341,239
6351,242
6362,230
6372,221
6383,214
6393,209
6404,199
6414,189
6424,191
6434,179
6446,174
6456,169
6466,161
6476,157
6487,163
6497,160
6508,161
6518,170
6529,181
6539,201
6549,250
6559,253
6569,261
6581,283
6591,285
6601,293
6611,286
6622,269
6632,259
6643,245
6653,243
6664,236
6674,232
6684,237
6694,229
6705,236
6716,247
6726,253
6736,256
6747,250
6757,251
6767,247
6778,254
6789,247
6799,250
6809,252
6819,241
6830,235
6841,224
6851,221
6861,209
6872,207
6882,209
6892,206
6902,201
6914,196
6924,201
6934,198
6944,204
6955,208
6965,216
6976,235
6986,237
6996,229
7007,226
7017,224
7027,224
7037,227
7049,228
7059,227
7069,224
7079,224
7090,218
7100,216
7111,213
7121,205
7132,206
7142,202
7152,215
7162,227
7174,241
7184,248
7194,240
7204,229
7215,220
7225,214
7235,207
7246,200
7257,200
7267,202
7277,204
7287,204
7298,202
7309,205
7319,208
7329,199
7340,209
7350,212
7360,216
7370,218
7382,218
7392,225
7402,231
7412,235
7422,228
7433,229
7444,223
7454,220
7464,210
7475,207
7485,200
7495,199
7506,196
7517,193
7527,188
7537,192
7547,188
7558,186
7568,192
7579,193
7589,201
7600,197
7610,194
7620,192
7630,189
7642,185
7652,191
7662,190
7672,201
7683,190
7693,193
7703,190
7714,190
7725,185
7735,190
7745,195
7755,193
7766,188
7777,188
7787,188
7797,188
7808,183
7818,182
7828,180
7839,179
7849,172
7860,167
7870,161
7880,157
7890,155
7901,150
7912,149
7922,138
7932,135
7943,127
7953,123
7963,120
7974,122
7985,117
7995,117
8005,115
8015,114
8026,112
8036,111
8047,108
8057,107
8068,102
8078,104
8088,102
8098,104
8110,104
8120,107
8130,104
8140,106
8151,109
8161,110
8172,111
8182,108
8193,108
8203,104
8213,106
8223,103
8233,103
8245,104
8255,107
8265,106
8275,105
8286,101
8296,105
8307,104
8317,102
8328,101
8338,102
8348,100
8358,105
8369,103
8380,100
8390,103
8400,103
8411,103
8421,102
8431,107
8442,105
8453,106
8463,107
8473,104
8483,103
8494,105
8505,106
8515,107
8525,105
8536,105
8546,106
8556,106
8566,104
8578,107
8588,99
8597,100
8607,96
8616,97
8626,98
8635,100
8646,98
8655,101
8666,97
8675,98
8684,103
8694,103
8706,98
8715,99
8724,97
8733,97
8742,93
8752,97
8761,101
8772,102
8782,102
8793,102
8803,102
8813,104
8823,104
8834,106
8845,108
8855,105
8865,104
8876,104
8886,102
8896,101
8907,104
8918,101
8928,100
8938,96
8947,99
8956,100
8967,100
8978,99
8987,100
8997,100
9008,103
9018,103
9028,107
9039,106
9050,110
9060,104
9070,105
9080,104
9091,104
9101,102
9112,103
9122,98
9132,98
9141,95
9150,97
9159,96
9168,102
9180,101
9190,105
9200,106
9210,116
9221,124
9231,135
9242,141
9252,148
9263,150
9273,154
9283,158
9293,162
9305,171
9315,175
9325,180
9335,179
9346,180
9356,183
9366,193
9377,193
9388,191
9398,187
9408,188
9418,190
9428,204
9440,209
9450,209
9460,223
9470,222
9481,221
9491,226
9502,224
9512,233
9523,239
9533,240
9543,256
9553,249
9564,260
9575,288
9585,293
9595,294
9606,313
9616,291
9626,321
9637,311
9648,306
9658,317
9668,320
9678,325
9689,313
9699,313
9710,304
9720,307
9731,299
9741,290
9751,269
9761,254
9773,238
9783,231
9793,216
9803,202
9814,190
9824,180
9835,185
9845,195
9856,203
9866,224
9876,222
9886,258
9896,275
9908,314
9918,298
9928,289
9938,295
9949,302
9959,335
9970,339
9980,347
9991,332
10001,336
10012,343
10023,326
10036,345
10047,339
10058,341
10070,322
10081,313
10092,302
10104,289
10116,282
10127,290
10138,303
10149,297
10161,283
10173,269
10184,252
10195,239
10207,243
10218,246
10229,246
10242,239
10253,238
10264,232
10275,217
10287,236
10298,229
10310,231
10321,227
10333,228
10344,226
10355,220
10368,235
10379,234
10390,233
10401,236
10413,229
10424,223
10436,211
10447,211
10459,207
10470,208
10481,213
10492,210
10505,204
10516,203
10527,205
10539,195
10550,193
10561,193
10573,192
10585,192
10596,188
10607,188
10618,188
10630,190
10642,186
10653,191
10664,199
10676,212
10687,220
10698,218
10711,215
10722,213
10733,201
10744,204
10756,216
10768,226
10779,232
10790,236
10802,233
10813,218
10824,212
10836,212
10848,207
10859,207
10870,204
10882,204
10893,192
10905,197
10916,195
10928,198
10939,203
10950,203
10961,211
10974,214
10985,230
10996,235
11008,243
11019,257
11030,250
11042,251
11054,242
11065,241
11076,236
11087,237
11100,245
11111,230
11122,224
11133,215
11145,213
11156,206
11168,207
11180,204
11191,199
11202,196
11213,195
11225,197
11237,198
11248,198
11259,195
11271,192
11282,190
11293,196
11305,197
11317,196
11328,198
11339,194
11351,192
11362,192
11374,193
11385,192
11397,194
11408,191
11419,189
11430,185
11443,187
11454,191
11465,191
11476,196
11488,192
11500,191
11511,182
11523,179
11534,170
11545,163
11556,155
11569,148
11580,145
11591,134
11602,129
11614,123
11625,122
11637,123
11649,121
11660,120
11671,113
11682,112
11694,109
11706,112
11717,112
11728,110
11740,111
11751,106
11762,105
11774,104
11786,102
11797,105
11808,106
11820,107
11832,104
11843,103
11854,100
11866,101
11877,102
11888,98
11899,99
11910,97
11920,97
11930,95
11940,95
11951,95
11961,98
11972,94
11982,96
11993,92
12003,95
12013,92
12023,93
12035,94
12045,95
12055,97
12065,99
12076,99
12086,98
12096,95
12107,95
12118,95
12128,95
12138,99
12148,97
12158,104
12171,102
12182,106
12193,110
12205,116
12216,127
12227,132
12239,141
12251,151
12262,160
12273,169
12284,185
12296,192
12308,188
12319,196
12331,202
12342,202
12353,213
12365,205
12377,207
12388,214
12399,238
12410,251
12422,247
12434,249
12445,241
12456,233
12468,232
12479,230
12490,241
12503,253
12514,248
12525,258
12536,250
12548,238
12559,260
12571,264
12582,259
12594,268
12605,283
12616,277
12627,298
12640,297
12651,300
12662,308
12674,322
12685,313
12697,312
12708,299
12720,301
12731,292
12742,289
12753,271
12766,278
12777,262
12788,283
12800,270
12811,265
12822,248
12834,234
12846,220
12857,214
12868,200
12879,180
12891,172
12903,171
12914,169
12925,159
12937,165
12948,175
12959,187
12972,205
12983,228
12994,245
13005,254
13017,260
13028,305
13040,322
13051,339
13063,359
13074,354
13085,365
13097,348
13109,336
13120,365
13131,374
13143,348
13154,318
13166,297
13177,290
13189,274
13200,275
13211,310
13222,295
13235,278
13246,294
13257,299
13268,306
13280,292
13291,265
13303,240
13315,227
13326,211
13337,208
13348,201
13360,192
13372,196
13383,192
13394,202
13406,197
13417,191
13428,191
13441,182
13452,178
13463,183
13474,190
13486,199
13498,210
13509,225
13520,231
13532,228
13543,232
13554,228
13566,226
13578,225
13589,229
13600,223
13612,226
13623,221
13635,218
13646,228
13658,230
13669,232
13680,229
13691,228
13704,225
13715,234
13726,233
13737,235
13749,236
13760,233
13772,236
13784,232
13795,232
13806,229
13817,235
13830,234
13841,229
13852,230
13863,225
13875,233
13886,230
13898,235
13910,244
13921,249
13932,258
13943,263
13955,283
13967,296
13978,314
13989,308
14001,290
14012,279
14023,271
14035,263
14047,273
14058,280
14069,294
14081,285
14092,272
14104,262
14115,252
14127,252
14138,247
14149,241
14161,240
14173,250
14184,261
14195,252
14206,244
14218,235
14230,225
14241,214
14253,207
14264,193
14275,175
14286,160
14299,160
14310,157
14321,155
14332,152
14344,152
14355,149
14367,146
14379,145
14390,140
14401,142
14412,146
14424,142
14436,144
14447,144
14458,152
14470,152
14481,175
14492,174
14504,189
14516,194
14527,186
14538,196
14550,181
14562,188
14573,182
14584,180
14596,187
14607,176
14618,182
14630,171
14642,177
14653,173
14664,181
14675,188
14687,182
14699,193
14710,180
14722,192
14733,180
14744,181
14755,189
14768,175
14779,179
14790,170
14801,177
14813,171
14824,162
14836,172
14848,160
14859,172
14870,166
14881,178
14894,177
14905,175
14916,188
14927,178
14939,186
14950,177
14962,185
14973,185
14985,171
14996,176
15007,165
15019,174
15031,166
15042,171
15053,171
15065,158
15076,174
15087,155
15099,163
15111,165
15122,177
15133,177
15144,165
15156,178
15168,170
15179,173
15191,169
15202,169
15213,175
15224,168
15237,177
15248,165
15259,168
15270,158
15282,157
15294,154
15305,147
15316,153
15328,146
15339,144
15350,153
15363,149
15374,160
15385,158
15396,174
15408,180
15419,192
15431,200
15442,192
15454,196
15465,187
15476,191
15488,191
15500,192
15511,202
15522,195
15534,199
15545,189
15556,196
15568,199
15580,204
15591,225
15602,228
15613,240
15626,237
15637,246
15648,242
15660,231
15671,238
15682,224
15694,228
15706,213
15717,215
15728,224
15739,215
15751,229
15763,225
15774,234
15785,226
15797,234
15808,236
15819,239
15832,242
15843,223
15854,223
15865,214
15877,233
15888,237
15900,233
15911,242
15923,239
15934,244
15945,257
15956,253
15969,250
15980,251
15991,257
16003,262
16014,261
16026,274
16037,288
16049,274
16060,274
16071,290
16082,278
16095,291
16106,301
16117,306
16129,312
16140,300
16151,281
16163,265
16175,258
16186,236
16197,222
16208,232
16220,232
16232,236
16243,215
16254,235
16266,218
16277,223
16288,220
16301,214
16312,229
16323,234
16334,246
16346,246
16358,257
16369,293
16380,318
16392,313
16403,398
16414,416
16427,402
16438,356
16449,353
16460,361
16472,357
16483,366
16495,378
16506,386
16518,379
16529,384
16540,354
16551,347
16564,335
16575,317
16586,323
16598,303
16609,299
16620,287
16632,286
16644,268
16655,268
16666,271
16677,266
16689,261
16701,265
16712,266
16723,252
16735,240
16746,240
16758,231
16770,229
16781,220
16792,228
16803,229
16815,223
16827,231
16838,221
16849,227
16861,216
16872,213
16883,216
16896,206
16907,219
16918,235
16929,236
16941,222
16952,222
16964,229
16975,224
16987,248
16998,246
17009,254
17020,250
17033,249
17044,254
17055,241
17067,249
17078,233
17089,230
17101,219
17113,223
17124,228
17135,227
17146,237
17159,227
17170,224
17181,216
17192,227
17204,226
17215,228
17227,240
17239,250
17250,245
17261,242
17272,251
17284,256
17296,248
17307,253
17318,254
17330,252
17341,263
17352,259
17364,260
17376,249
17387,245
17398,232
17410,225
17421,207
17433,259
17444,284
17456,283
17467,287
17478,276
17490,267
17502,249
17513,237
17524,237
17536,225
17547,243
17559,233
17570,249
17582,252
17593,266
17604,269
17615,261
17628,273
17639,252
17650,269
17661,266
17673,277
17684,284
17696,267
17708,269
17719,255
17730,265
17741,253
17753,247
17765,247
17776,233
17787,244
17799,227
17810,259
17821,253
17833,253
17845,264
17856,251
17867,263
17879,255
17891,286
17902,283
17913,275
17925,280
17936,256
17947,262
17959,255
17971,284
17982,276
17993,272
18004,290
18016,281
18028,284
18039,258
18051,261
18062,268
18073,261
18084,268
18097,244
18108,270
18119,273
18130,272
18142,269
18153,258
18165,275
18177,269
18188,290
18199,286
18210,285
18223,290
18234,283
18245,290
18256,279
18268,294
18279,292
18291,308
18302,312
18314,301
18325,318
18336,300
18348,324
18360,310
18371,301
18382,297
18394,277
18405,283
18416,275
18428,295
18440,287
18451,291
18462,310
18473,302
18485,318
18497,305
18508,312
18520,296
18531,282
18542,289
18553,272
18566,275
18577,259
18588,273
18599,272
18611,274
18623,279
18634,264
18646,273
18657,265
18668,289
18679,288
18692,290
18703,308
18714,287
18725,288
18737,276
18748,278
18760,279
18771,280
18783,300
18794,284
18805,281
18817,268
18829,266
18840,271
18851,264
18863,272
18874,256
18885,266
18897,262
18909,259
18920,265
18931,247
18942,255
18955,242
18966,268
18977,258
18989,256
19000,264
19011,251
19023,248
19035,225
19046,219
19057,203
19068,193
19080,188
19092,171
19103,170
19115,156
19126,158
19137,169
19148,168
19161,186
19172,187
19183,203
19194,217
19206,221
19217,232
19229,221
19240,225
19252,214
19263,217
19274,217
19286,215
19298,232
19309,238
19320,238
19332,222
19343,225
19355,227
19366,217
19378,233
19389,233
19400,250
19411,240
19424,258
19435,271
19446,260
19458,265
19469,250
19480,251
19492,237
19504,238
19515,237
19526,227
19537,244
19549,233
19561,233
19572,226
19584,234
19595,244
19606,235
19617,249
19630,243
19641,244
19652,231
19663,229
19675,243
19687,243
19698,265
19709,260
19721,269
19732,240
19743,287
19756,292
19767,287
19778,284
19789,270
19801,275
19812,252
19824,257
19835,241
19847,226
19858,220
19869,210
19880,219
19893,216
19904,232
19915,236
19927,239
19938,251
19949,241
19961,245
19973,228
19984,218
19995,232
20006,229
20018,230
20030,270
20041,286
20052,317
20064,387
20075,441
20087,403
20099,382
20110,359
20121,357
20132,344
20144,332
20156,366
20167,351
20178,400
20190,378
20201,396
20212,369
20225,344
20236,323
20247,309
20258,295
20270,261
20281,256
20293,258
20304,239
20316,253
20327,245
20338,253
20349,231
20362,230
20373,233
20384,221
20396,217
20407,220
20419,229
20430,226
20442,226
20453,225
20464,219
20475,218
20488,212
20499,211
20510,215
20521,210
20533,226
20544,229
20556,235
20568,229
20579,229
20590,236
20601,229
20613,247
20625,237
20636,243
20647,232
20659,241
20670,254
20681,244
20694,262
20705,251
20716,252
20727,246
20739,257
20751,261
20762,256
20773,267
20785,249
20796,256
20807,236
20819,233
20831,237
20842,231
20853,239
20865,220
20876,224
20888,215
20899,224
20911,240
20922,242
20933,263
20944,257
20957,266
20968,256
20979,258
20990,260
21002,251
21013,259
21025,256
21037,261
21048,260
21059,266
21070,274
21082,255
21094,257
21105,242
21116,246
21128,246
21139,232
21151,240
21163,241
21174,261
21185,251
21196,250
21208,243
21220,228
21231,242
21242,224
21254,227
21265,212
21276,217
21288,221
21300,209
21311,214
21322,195
21334,200
21345,192
21357,214
21368,216
21380,216
21391,211
21402,197
21413,203
21426,186
21437,189
21448,183
21459,191
21471,206
21483,198
21494,215
21506,214
21517,226
21528,217
21539,216
21552,234
21563,223
21574,245
21585,235
21597,256
21608,248
21620,254
21632,250
21643,236
21654,250
21665,238
21677,259
21689,246
21700,244
21711,258
21723,252
21734,260
21745,244
21757,254
21769,240
21780,224
21791,233
21803,222
21814,241
21826,232
21837,242
21849,234
21860,219
21871,240
21883,223
21895,230
21906,224
21917,242
21928,248
21940,232
21952,237
21963,223
21975,240
21986,241
21997,247
22008,250
22021,242
22032,266
22043,264
22054,281
22066,269
22077,262
22089,272
22100,257
22112,280
22123,270
22134,298
22146,290
22158,295
22169,297
22180,284
22192,304
22203,286
22215,290
22226,275
22238,262
22249,276
22260,261
22272,276
22284,259
22295,270
22306,261
22318,255
22329,272
22340,257
22352,264
22364,249
22375,258
22386,255
22397,255
22409,270
22421,250
22432,276
22444,271
22455,280
22466,277
22477,259
22490,258
22501,229
22512,228
22523,215
22535,208
22546,201
22558,188
22569,180
22581,168
22592,168
22603,168
22616,161
22627,171
22638,159
22649,173
22661,169
22672,176
22684,181
22695,176
22707,194
22718,184
22729,189
22740,176
22753,179
22764,186
22775,191
22787,208
22798,202
22809,206
22821,196
22833,198
22844,207
22855,197
22866,214
22878,209
22890,221
22901,217
22913,210
22924,218
22935,216
22946,223
22959,221
22970,223
22981,222
22992,225
23004,235
23016,226
23027,238
23038,233
23050,234
23061,237
23072,225
23085,236
23096,235
23107,231
23118,216
23130,224
23141,230
23153,225
23164,235
23176,231
23187,253
23198,250
23209,262
23222,270
23233,255
23244,258
23256,250
23267,247
23278,228
23290,225
23302,223
23313,227
23324,242
23335,243
23348,253
23359,222
23370,217
23382,201
23393,198
23404,205
23416,188
23428,195
23439,179
23450,191
23461,190
23473,190
23485,203
23496,192
23507,206
23519,194
23530,204
23541,202
23554,202
23565,208
23576,206
23587,224
23599,216
23610,216
23622,209
23633,227
23645,237
23656,233
23667,284
23678,285
23691,327
23702,366
23713,378
23725,376
23736,352
23748,339
23759,367
23771,361
23782,370
23793,338
23804,353
23817,317
23828,322
23839,312
23851,303
23862,293
23873,272
23885,270
23897,248
23908,250
23919,258
23930,267
23942,280
23954,269
23965,267
23976,247
23988,234
23999,239
24010,234
24023,249
24034,236
24045,233
24056,218
24068,225
24080,222
24091,213
24102,218
24114,216
24125,227
24136,228
24148,225
24160,223
24171,214
24182,227
24194,212
24205,212
24217,217
24228,214
24240,226
24251,226
24262,230
24273,219
24286,223
24297,228
24308,221
24320,234
24331,231
24342,243
24354,230
24366,235
24377,235
24388,221
24399,233
24411,224
24423,227
24434,222
24445,241
24457,254
24468,248
24480,259
24492,256
24503,246
24514,238
24525,240
24537,244
24549,234
24560,241
24571,243
24583,244
24594,244
24605,246
24617,254
24629,259
24640,268
24651,278
24663,274
24674,275
24686,277
24697,273
24709,263
24720,270
24731,254
24742,254
24755,245
24766,242
24777,253
24788,243
24800,238
24812,218
24823,215
24835,208
24846,200
24857,207
24868,182
24881,193
24892,178
24903,179
24914,170
24926,171
24937,173
24949,164
24961,171
24972,160
24983,170
24994,159
25006,163
25018,160
25029,156
25040,175
25052,165
25063,180
25074,175
25086,180
25098,182
25109,168
25120,176
25132,167
25144,181
25155,171
25166,174
25178,175
25189,163
25200,172
25212,171
25224,185
25235,178
25246,175
25257,189
25269,181
25281,196
25292,190
25304,204
25315,197
25326,189
25337,202
25350,190
25361,200
25372,192
25383,211
25395,201
25406,193
25418,199
25430,179
25441,199
25452,190
25463,197
25475,199
25487,192
25498,208
25509,196
25521,204
25532,196
25544,204
25555,208
25567,200
25578,216
25589,209
25601,225
25613,219
25624,231
25635,227
25647,221
25658,226
25669,205
25681,207
25693,204
25704,203
25715,202
25726,194
25738,208
25750,199
25761,214
25773,211
25784,204
25795,206
25806,191
25819,195
25830,186
25841,194
25852,186
25864,184
25876,192
25887,184
25899,201
25910,197
25921,202
25932,198
25945,193
25956,206
25967,191
25978,205
25990,195
26001,213
26013,209
26024,208
26036,224
26047,206
26058,219
26070,211
26082,231
26093,224
26104,219
26116,236
26127,221
26138,230
26150,218
26162,222
26173,218
26184,213
26195,217
26207,210
26219,214
26230,203
26242,202
26253,206
26264,195
26276,212
26288,195
26299,212
26310,208
26321,220
26333,223
26345,210
26356,218
26368,205
26379,213
26390,211
26401,215
26414,216
26425,200
26436,215
26447,201
26459,207
26470,201
26482,200
26493,210
26505,200
26516,208
26527,192
26539,200
26551,197
26562,191
26573,207
26585,197
26596,210
26608,203
26619,215
26631,209
26642,210
26653,219
26664,199
26677,204
26688,197
26699,212
26711,207
26722,203
26733,209
26745,188
26757,203
26768,184
26779,188
26790,200
26802,195
26814,208
26825,192
26836,208
26848,200
26859,213
26870,219
26883,208
26894,216
26905,191
26916,193
26928,187
26939,188
26951,188
26962,175
26974,183
26985,166
26996,178
27009,169
27020,174
27031,181
27042,165
27054,180
27065,166
27077,183
27088,176
27100,177
27111,182
27122,166
27133,178
27146,164
27157,180
27168,174
27180,175
27191,187
27202,172
27214,185
27226,168
27237,184
27248,174
27259,174
27271,179
27283,165
27294,179
27305,165
27317,180
27328,177
27340,172
27352,182
27363,168
27374,180
27385,170
27397,183
27409,179
27420,173
27431,184
27443,164
27454,178
27465,171
27478,180
27489,181
27500,176
27511,184
27523,170
27534,181
27546,173
27557,182
27569,184
27580,173
27591,188
27602,169
27615,186
27626,178
27637,182
27649,196
27660,178
27671,191
27683,174
27695,192
27706,180
27717,183
27728,192
27741,184
27752,194
27763,175
27774,183
27786,177
27797,178
27809,184
27821,182
27832,196
27843,178
27854,185
27866,177
27878,179
27889,189
27900,172
27912,188
27923,175
27934,189
27947,187
27958,185
27969,194
27980,177
27992,195
28003,184
28015,195
28026,194
28038,185
28049,199
28060,182
28071,196
28084,194
28095,202
28106,200
28118,186
28129,199
28141,182
28152,199
28164,192
28175,198
28186,201
28197,188
28210,196
28221,193
28232,205
28243,200
28255,210
28266,215
28278,206
28290,232
28301,220
28312,239
28323,233
28335,236
28347,250
28358,243
28369,265
28381,254
28392,278
28403,269
28416,265
28427,278
28438,268
28449,283
28461,269
28473,271
28484,261
28495,249
28507,252
28518,229
28529,241
28541,229
28553,238
28564,234
28575,222
28587,215
28598,198
28610,198
28621,185
28633,173
28644,177
28655,164
28666,171
28679,162
28690,171
28701,177
28712,166
28724,175
28735,169
28747,185
28759,186
28770,195
28781,210
28792,210
28805,228
28816,215
28827,216
28838,206
28850,209
28861,225
28873,216
28884,222
28896,224
28907,257
28918,253
28930,257
28942,248
28953,240
28964,246
28976,228
28987,234
28998,243
29010,269
29022,260
29033,256
29044,284
29056,281
29067,279
29079,269
29090,258
29102,258
29113,243
29124,252
29135,256
29148,259
29159,259
29170,248
29181,239
29193,238
29205,264
29216,240
29228,244
29239,227
29250,248
29261,253
29274,250
29285,251
29296,228
29307,244
29319,242
29330,250
29342,253
29353,237
29365,255
29376,237
29387,256
29399,273
29411,267
29422,293
29433,310
29445,306
29456,293
29467,320
29479,328
29491,314
29502,327
29513,329
29524,333
29536,346
29548,359
29559,370
29571,364
29582,349
29593,333
29605,345
29617,332
29628,333
29639,330
29650,320
29662,338
29674,309
29685,306
29697,278
29708,277
29719,278
29730,264
29743,274
29754,262
29765,265
29776,267
29788,253
29799,250
29811,238
29822,241
29834,232
29845,246
29856,250
29868,260
29880,277
29891,272
29902,290
29914,281
29925,295
29937,290
29948,272
29960,278
29971,258
29982,257
29993,238
30006,240
30017,249
30028,263
30040,269
30051,266
30062,254
30074,244
30086,235
30097,231
30108,236
30119,235
30131,233
30143,234
30154,248
30166,257
30177,256
30188,256
30199,260
30212,263
30223,251
30234,248
30245,243
30257,238
30269,234
30280,239
30291,230
30303,230
30314,231
30325,222
30338,218
30349,212
30360,209
30371,202
30383,193
30394,190
30406,192
30417,193
30429,196
30440,187
30451,174
30462,169
30475,167
30486,165
30497,168
30509,169
30520,170
30531,164
30543,150
30555,143
30566,137
30577,133
30588,127
30600,136
30612,142
30623,146
30635,152
30646,153
30657,153
30669,156
30681,162
30692,164
30703,165
30714,166
30726,166
30738,169
30749,169
30760,178
30772,180
30783,178
30794,178
30807,178
30818,176
30829,174
30840,169
30852,170
30863,167
30875,169
30886,166
30898,170
30909,166
30920,162
30931,160
30944,164
30955,166
30966,172
30978,177
30989,174
31001,178
31012,178
31024,179
31035,172
31046,168
31057,166
31070,172
31081,175
31092,180
31104,180
31115,189
31126,193
31138,196
31150,192
31161,191
31172,191
31183,193
31195,199
31207,188
31218,187
31229,179
31241,180
31252,186
31263,186
31276,188
31287,187
31298,187
31309,193
31321,197
31332,198
31344,189
31355,193
31367,186
31378,182
31389,188
31401,200
31413,205
31424,197
31435,189
31447,179
31458,178
31470,185
31481,194
31493,193
31504,192
31515,191
31526,187
31539,186
31550,192
31561,196
31572,197
31584,202
31595,208
31607,205
31619,206
31630,207
31641,201
31652,193
31664,184
31676,182
31687,191
31698,190
31710,187
31721,183
31732,180
31745,183
31756,178
31767,172
31778,165
31790,166
31802,164
31813,164
31824,164
31836,153
31847,150
31858,147
31870,149
31882,150
31893,154
31904,150
31916,149
31927,146
31939,145
31950,148
31962,146
31973,156
31984,154
31995,150
32008,147
32019,152
32030,154
32041,159
32053,156
32064,154
32076,152
32088,160
32099,167
32110,167
32121,165
32134,166
32145,165
32156,161
32167,164
32179,169
32190,164
32202,163
32214,157
32225,149
32236,146
32247,152
32259,158
32271,159
32282,163
32293,165
32305,167
32316,170
32327,173
32339,166
32351,165
32362,165
32373,163
32385,169
32396,161
32408,162
32419,156
32431,158
32442,155
32453,158
32464,155
32477,158
32488,163
32499,163
32510,160
32522,154
32534,154
32545,153
32557,154
32568,157
32579,155
32590,156
32603,159
32614,156
32625,154
32636,150
32648,146
32659,139
32671,132
32683,129
32694,122
32705,118
32716,115
32728,117
32740,120
32751,126
32762,135
32774,138
32785,146
32796,152
32808,153
32820,160
32831,166
32842,181
32854,181
32866,196
32877,200
32888,197
32900,196
32911,192
32922,191
32934,187
32946,194
32957,204
32968,211
32979,214
32991,212
33003,206
33014,203
33026,207
33037,218
33048,229
33059,234
33072,235
33083,239
33094,248
33105,249
33117,249
33128,247
33140,245
33152,235
33163,238
33174,231
33185,241
33197,285
33209,320
33220,309
33231,284
33243,298
33254,284
33266,278
33277,256
33289,251
33300,255
33311,252
33323,261
33335,273
33346,277
33357,270
33369,272
33380,255
33391,254
33403,259
33415,236
33426,227
33437,237
33448,235
33460,245
33472,248
33483,241
33495,244
33506,229
33517,243
33528,234
33541,232
33552,216
33563,208
33574,197
33586,195
33598,189
33609,188
33620,192
33632,202
33643,210
33654,200
33667,194
33678,210
33689,217
33700,206
33712,213
33723,206
33735,225
33746,224
33758,252
33769,251
33780,247
33792,274
33804,294
33815,328
33826,310
33838,298
33849,294
33860,274
33872,272
33884,268
33895,278
33906,284
33917,286
33930,274
33941,275
33952,274
33964,266
33975,266
33986,252
33998,243
34010,235
34021,232
34032,222
34043,230
34055,224
34067,228
34078,224
34089,225
34101,244
34112,244
34123,243
34136,240
34147,243
34158,244
34169,245
34181,238
34192,232
34204,231
34215,229
34227,227
34238,221
34249,229
34260,242
34273,235
34284,237
34295,237
34307,228
34318,229
34330,229
34341,234
34353,231
34364,226
34375,224
34386,216
34399,213
34410,208
34421,209
34433,209
34444,215
34455,211
34467,207
34479,217
34490,216
34501,215
34512,217
34524,215
34536,220
34547,220
34558,222
34570,232
34581,229
34592,237
34605,245
34616,239
34627,232
34638,233
34650,227
34662,218
34673,215
34684,214
34696,216
34707,205
34718,199
34731,182
34742,169
34753,158
34764,152
34776,149
34787,143
34799,138
34810,130
34822,127
34833,127
34844,120
34855,123
34868,126
34879,127
34890,121
34902,121
34913,125
34924,123
34936,118
34948,115
34959,114
34970,115
34981,111
34993,112
35005,111
35016,112
35027,107
35039,104
35050,101
35062,104
35074,101
35085,102
35096,100
35107,100
35119,103
35131,104
35142,108
35153,108
35165,111
35176,108
35187,106
35200,107
35211,107
35222,112
35233,119
35245,118
35256,115
35268,114
35279,116
35291,112
35302,111
35313,112
35324,114
35337,114
35348,114
35359,115
35371,118
35382,119
35394,118
35405,120
35417,121
35428,120
35439,118
35450,116
35463,114
35474,114
35485,113
35496,118
35508,122
35519,122
35531,124
35543,123
35554,130
35565,130
35576,133
35588,124
35600,126
35611,122
35622,121
35634,120
35645,119
35656,119
35668,116
35680,114
35691,107
35702,105
35714,106
35725,106
35737,107
35748,107
35760,106
35771,109
35782,112
35794,108
35806,109
35817,109
35828,114
35840,114
35851,114
35863,109
35874,109
35886,106
35897,104
35908,109
35919,111
35932,108
35943,104
35954,101
35965,98
35976,97
35986,98
35997,100
36008,102
36020,104
36031,107
36042,106
36054,103
36066,105
36077,105
36088,107
36100,106
36111,102
36122,101
36134,98
36145,97
36155,101
36166,99
36176,100
36188,100
36200,99
36210,99
36220,99
36231,100
36242,97
36252,99
36263,100
36275,102
36286,101
36297,102
36308,104
36320,105
36332,107
36343,106
36355,110
36366,114
36377,121
36388,127
36401,128
36412,138
36423,148
36434,149
36446,150
36457,151
36469,157
36481,151
36492,157
36503,160
36514,162
36527,164
36538,168
36549,169
36560,172
36572,185
36583,188
36595,189
36606,191
36618,188
36629,181
36640,176
36652,182
36664,187
36675,191
36686,200
36698,203
36709,199
36720,195
36732,200
36744,199
36755,204
36766,203
36777,195
36789,195
36801,200
36812,197
36824,197
36835,203
36846,208
36858,205
36870,214
36881,225
36892,235
36903,251
36915,277
36927,276
36938,263
36950,259
36961,247
36972,240
36983,249
36996,252
37007,259
37018,239
37029,229
37041,215
37052,213
37064,200
37075,201
37087,195
37098,186
37109,179
37121,188
37133,180
37144,184
37155,182
37167,181
37178,171
37189,180
37201,172
37213,168
37224,157
37235,152
37246,154
37259,159
37270,161
37281,156
37293,156
37304,155
37315,185
37327,194
37339,223
37350,267
37361,300
37372,318
37384,367
37396,364
37407,371
37419,355
37430,338
37441,342
37452,330
37465,353
37476,341
37487,351
37498,319
37510,307
37521,288
37533,270
37544,261
37556,253
37567,265
37578,266
37590,254
37602,263
37613,260
37624,260
37636,244
37647,249
37659,246
37670,236
37682,235
37693,238
37704,236
37715,224
37728,217
37739,212
37750,210
37762,212
37773,223
37784,231
37796,215
37808,221
37819,226
37830,225
37841,234
37853,228
37865,240
37876,238
37888,250
37899,249
37910,246
37921,246
37934,240
37945,249
37956,246
37967,253
37979,252
37991,251
38002,252
38013,253
38025,267
38036,264
38047,271
38060,282
38071,272
38082,265
38093,251
38105,254
38116,242
38128,238
38139,238
38151,240
38162,241
38173,235
38184,236
38197,242
38208,244
38219,251
38231,252
38242,264
38253,255
38265,257
38277,255
38288,242
38299,243
38310,239
38323,239
38334,228
38345,227
38356,221
38368,213
38379,212
38391,207
38403,213
38414,206
38425,208
38436,217
38448,215
38460,210
38471,198
38482,197
38494,181
38505,180
38516,180
38529,175
38540,179
38551,173
38562,178
38574,169
38585,170
38597,173
38608,173
38620,175
38631,171
38642,179
38653,175
38666,175
38677,178
38688,177
38700,180
38711,172
38723,180
38734,174
38746,179
38757,175
38768,176
38779,175
38792,168
38803,178
38814,175
38825,173
38837,171
38848,173
38860,179
38872,170
38883,176
38894,171
38905,172
38917,163
38929,167
38940,173
38951,165
38963,175
38974,178
38985,176
38998,175
39009,174
39020,178
39031,174
39043,178
39054,175
39066,173
39077,167
39089,169
39100,171
39111,167
39123,171
39135,175
39146,171
39157,170
39169,168
39180,164
39192,167
39203,169
39215,166
39226,166
39237,165
39248,163
39261,162
39272,164
39283,165
39294,164
39306,162
39317,166
39329,166
39341,170
39352,166
39363,169
39374,164
39386,166
39398,165
39409,159
39420,167
39432,164
39443,164
39455,157
39467,159
39478,159
39489,153
39500,157
39512,159
39524,160
39535,159
39546,164
39558,166
39569,162
39580,166
39592,168
39604,166
39615,157
39626,161
39638,162
39649,161
39661,165
39672,172
39684,172
39695,168
39706,168
39717,175
39730,169
39741,173
39752,174
39763,175
39775,180
39786,181
39798,188
39810,186
39821,191
39832,194
39843,194
39856,198
39867,196
39878,208
39889,205
39901,206
39912,214
39924,213
39936,221
39947,213
39958,224
39969,216
39981,215
39993,229
40004,223
40015,227
40027,214
40038,225
40049,232
40061,225
40073,230
40084,225
40095,231
40107,219
40118,231
40130,239
40141,233
40153,236
40164,236
40175,244
40187,230
40199,246
40210,247
40221,238
40232,240
40244,237
40256,241
40267,237
40279,266
40290,282
40301,277
40312,282
40325,266
40336,285
40347,275
40358,277
40370,277
40381,273
40393,288
40404,281
40416,291
40427,316
40438,320
40450,320
40462,311
40473,330
40484,310
40496,312
40507,308
40519,310
40530,307
40542,293
40553,290
40564,269
40576,257
40588,247
40599,244
40610,230
40622,234
40633,246
40644,243
40656,247
40668,252
40679,255
40690,241
40701,237
40713,235
40725,230
40736,223
40748,217
40759,214
40770,211
40781,217
40794,221
40805,230
40816,235
40827,260
40839,251
40850,280
40862,279
40873,313
40885,304
40896,303
40907,309
40920,291
40931,311
40942,301
40953,322
40965,318
40976,311
40988,353
40999,354
41011,361
41022,341
41033,342
41044,347
41057,362
41068,362
41079,346
41091,368
41102,356
41113,358
41125,337
41137,328
41148,333
41159,323
41170,330
41182,317
41194,328
41205,308
41217,300
41228,337
41239,336
41251,344
41263,325
41274,332
41285,328
41296,316
41308,317
41320,302
41331,310
41342,291
41354,292
41365,294
41376,284
41389,280
41400,276
41411,284
41422,273
41434,289
41445,290
41457,275
41468,276
41480,268
41491,279
41502,261
41513,266
41526,269
41537,260
41548,265
41560,251
41571,254
41582,242
41594,248
41606,255
41617,251
41628,270
41639,260
41652,263
41663,247
41674,244
41686,232
41697,221
41708,212
41720,203
41732,203
41743,197
41754,194
41765,186
41777,188
41789,193
41800,189
41811,201
41823,190
41834,191
41845,191
41858,194
41869,194
41880,189
41891,198
41903,203
41914,203
41926,196
41937,197
41949,196
41960,189
41971,188
41984,187
41995,188
42006,190
42017,194
42029,205
42040,199
42052,201
42063,199
42075,197
42086,195
42097,198
42108,186
42121,189
42132,192
42143,191
42155,192
42166,191
42177,196
42189,207
42201,202
42212,209
42223,200
42234,200
42246,189
42258,191
42269,186
42280,194
42292,203
42303,205
42314,206
42327,199
42338,199
42349,200
42360,204
42372,206
42384,203
42395,208
42406,208
42418,202
42429,195
42440,200
42452,197
42464,193
42475,195
42486,195
42498,191
42509,191
42521,191
42532,190
42544,185
42555,191
42566,193
42577,183
42590,184
42601,180
42612,181
42624,181
42635,186
42646,199
42658,190
42670,202
42681,200
42692,202
42703,193
42716,193
42727,193
42738,192
42749,200
42761,194
42772,198
42784,190
42796,189
42807,193
42818,191
42829,195
42841,187
42853,191
42864,179
42875,179
42887,185
42898,187
42909,192
42921,193
42933,193
42944,197
42955,194
42967,190
42978,193
42990,191
43001,185
43013,186
43024,191
43035,187
43046,199
43059,195
43070,197
43081,219
43092,221
43104,242
43116,226
43127,238
43139,236
43150,236
43161,240
43172,239
43185,258
43196,251
43207,266
43218,263
43230,255
43241,256
43253,253
43265,250
43276,240
43287,249
43298,267
43310,261
43322,263
43333,277
43344,292
43356,276
43367,291
43378,290
43390,296
43402,302
43413,290
43424,293
43436,294
43448,327
43459,346
43470,346
43482,332
43493,308
43504,315
43516,297
43528,302
43539,300
43550,282
43561,261
43573,260
43585,244
43596,238
43608,249
43619,238
43630,243
43641,241
43654,239
43665,246
43676,248
43687,246
43699,241
43710,254
43722,250
43734,249
43745,258
43756,257
43767,260
43779,248
43791,255
43802,258
43813,243
43825,251
43836,256
43848,253
43859,245
43871,247
43882,241
43893,234
43905,228
43917,244
43928,251
43939,266
43951,268
43962,323
43973,328
43985,346
43997,374
44008,353
44019,363
44030,399
44042,412
44054,373
44065,347
44077,328
44088,307
44099,306
44110,303
44123,302
44134,284
44145,298
44156,317
44168,311
44180,310
44191,312
44203,313
44214,305
44225,302
44236,303
44249,291
44260,284
44271,264
44282,264
44294,256
44305,244
44317,249
44328,241
44340,236
44351,220
44362,230
44374,224
44386,222
44397,235
44408,237
44420,258
44431,241
44442,246
44454,249
44466,238
44477,236
44488,232
44499,238
44511,221
44523,227
44534,226
44546,219
44557,220
44568,217
44580,223
44592,208
44603,216
44614,220
44625,218
44637,229
44649,224
44660,239
44672,228
44683,230
44694,231
44705,228
44718,237
44729,230
44740,245
44751,234
44763,243
44774,247
44786,239
44797,234
44809,219
44820,227
44831,224
44843,232
44855,233
44866,225
44877,228
44889,215
44900,221
44912,215
44923,207
44935,211
44946,208
44957,208
44968,195
44981,207
44992,207
45003,203
45015,206
45026,203
45037,207
45049,195
45061,206
45072,204
45083,201
45094,210
45106,208
45118,220
45129,205
45140,212
45152,210
45163,203
45174,206
45187,209
45198,223
45209,213
45220,226
45232,225
45243,214
45255,215
45266,210
45278,215
45289,202
45300,205
45313,206
45324,200
45335,206
45346,197
45358,206
45369,195
45381,197
45392,195
45404,192
45415,193
45426,189
45437,195
45450,189
45461,190
45472,190
45484,191
45495,190
45506,184
45518,194
45530,186
45541,186
45552,185
45563,182
45575,182
45587,179
45598,187
45609,189
45621,187
45632,189
45644,189
45656,192
45667,183
45678,192
45689,195
45701,188
45713,197
45724,196
45735,204
45747,190
45758,198
45769,199
45782,193
45793,201
45804,197
45815,202
45827,189
45838,198
45850,199
45861,193
45873,198
45884,193
45895,197
45906,182
45919,189
45930,194
45941,189
45953,193
45964,187
45975,199
45987,185
45999,189
46010,190
46021,188
46032,192
46045,185
46056,196
46067,186
46078,185
46090,187
46101,186
46113,194
46125,186
46136,195
46147,189
46158,188
46170,189
46182,188
46193,191
46204,185
46216,197
46227,193
46238,190
46251,191
46262,192
46273,201
46284,194
46296,213
46307,216
46319,211
46330,214
46342,212
46353,218
46364,207
46376,217
46388,235
46399,232
46410,239
46422,234
46433,244
46445,230
46456,248
46468,252
46479,245
46490,255
46501,254
46514,256
46525,241
46536,242
46547,247
46559,245
46570,249
46582,242
46594,248
46605,241
46616,248
46627,248
46639,247
46651,250
46662,237
46673,242
46685,234
46696,234
46707,254
46720,255
46731,263
46742,257
46753,271
46765,268
46777,263
46788,265
46799,263
46811,268
46822,264
46833,276
46845,290
46857,297
46868,297
46879,298
46891,317
46902,301
46914,311
46925,317
46937,305
46948,302
46959,290
46970,290
46983,263
46994,265
47005,256
47016,246
47028,232
47039,231
47051,226
47063,220
47074,220
47085,216
47096,215
47109,210
47120,217
47131,223
47142,221
47154,221
47165,224
47177,222
47188,222
47200,228
47211,234
47222,231
47234,234
47246,242
47257,252
47268,232
47280,224
47291,217
47302,214
47314,217
47326,207
47337,218
47348,220
47360,221
47371,233
47383,242
47394,245
47406,231
47417,245
47428,243
47439,241
47452,246
47463,239
47474,239
47485,235
47497,239
47509,231
47520,226
47532,218
47543,286
47554,319
47565,362
47578,368
47589,403
47600,376
47611,378
47623,365
47634,360
47646,368
47657,384
47669,402
47680,383
47691,375
47703,362
47715,353
47726,390
47737,368
47749,367
47760,336
47771,331
47783,328
47795,312
47806,326
47817,309
47828,314
47841,306
47852,304
47863,302
47875,296
47886,285
47897,277
47909,281
47921,273
47932,281
47943,289
47954,295
47966,303
47978,288
47989,288
48001,281
48012,282
48023,287
48034,283
48047,285
48058,262
48069,269
48080,265
48092,253
48103,247
48115,240
48126,241
48138,232
48149,245
48160,253
48172,240
48184,243
48195,232
48206,231
48218,215
48229,224
48241,228
48252,224
48264,232
48275,227
48286,234
48297,228
48310,243
48321,248
48332,236
48344,236
48355,228
48366,231
48378,212
48390,210
48401,210
48412,204
48423,208
48435,203
48447,208
48458,198
48470,204
48481,201
48492,198
48503,206
48516,199
48527,207
48538,199
48549,202
48561,208
48573,206
48584,213
48595,206
48607,221
48618,213
48629,213
48642,218
48653,215
48664,222
48675,214
48687,225
48698,220
48710,214
48721,212
48733,209
48744,210
48755,200
48766,211
48779,207
48790,202
48801,201
48813,203
48824,202
48835,195
48847,201
48859,203
48870,198
48881,200
48892,198
48904,205
48916,195
48927,203
48939,203
48950,196
48961,196
48973,194
48985,201
48996,191
49007,196
49018,204
49030,199
49042,203
49053,197
49064,204
49076,197
49087,200
49098,208
49111,204
49122,215
49133,210
49144,221
49156,214
49167,222
49179,229
49190,223
49202,222
49213,208
49224,213
49235,210
49248,206
49259,216
49270,217
49282,223
49293,208
49305,212
49316,211
49328,209
49339,210
49350,203
49361,207
49374,194
49385,201
49396,201
49408,194
49419,203
49430,202
49442,208
49454,193
49465,201
49476,196
49487,190
49499,195
49511,191
49522,198
49533,186
49545,197
49556,198
49567,191
49580,189
49591,186
49602,191
49613,182
49625,187
49636,191
49648,188
49659,191
49671,186
49682,188
49693,180
49705,183
49717,186
49728,183
49739,188
49751,181
49762,185
49774,184
49785,183
49797,187
49808,184
49819,185
49830,177
49843,185
49854,183
49865,182
49876,185
49888,182
49899,184
49911,175
49923,179
49934,178
49945,176
49956,181
49968,180
49980,186
49991,178
50002,186
50014,179
50025,174
50036,180
50049,179
50060,184
50071,172
50082,181
50094,176
50106,171
50117,172
50128,171
50140,181
50151,170
50162,178
50174,180
50186,175
50197,173
50208,171
50220,176
50231,162
50243,170
50254,167
50266,164
50277,171
50288,168
50299,174
50312,172
50323,180
50334,178
50345,177
50357,182
50368,175
50380,185
50392,181
50403,183
50414,184
50425,181
50438,175
50449,173
50460,179
50471,176
50483,175
50494,171
50506,169
50518,165
50529,162
50540,168
50551,171
50563,169
50575,170
50586,170
50597,170
50609,164
50620,168
50631,169
50643,166
50655,167
50666,169
50677,172
50689,161
50700,165
50712,163
50723,161
50735,159
50746,161
50757,166
50768,157
50781,167
50792,164
50803,162
50814,158
50826,156
50838,156
50849,156
50861,159
50872,164
50883,163
50894,161
50907,159
50918,161
50929,158
50940,162
50952,165
50963,163
50975,164
50987,162
50998,162
51009,165
51020,165
51032,165
51044,166
51055,167
51066,160
51078,167
51089,163
51100,164
51112,159
51124,163
51135,162
51146,160
51158,170
51170,170
51181,170
51192,165
51204,167
51215,165
51226,166
51238,167
51250,170
51261,169
51272,166
51283,166
51295,164
51307,162
51318,164
51330,167
51341,165
51352,165
51363,167
51376,175
51387,163
51398,165
51409,167
51421,164
51432,166
51444,166
51456,169
51467,160
51478,163
51489,161
51502,160
51513,164
51524,162
51535,168
51547,162
51558,167
51570,163
51581,163
51593,168
51604,163
51615,168
51627,164
51639,165
51650,164
51661,165
51673,167
51684,161
51695,169
51707,169
51719,168
51730,166
51741,166
51752,169
51764,164
51776,170
51787,167
51799,165
51810,168
51821,169
51832,166
51845,164
51856,180
51867,179
51878,178
51890,191
51902,195
51913,212
51924,201
51936,215
51947,226
51958,226
51971,237
51982,234
51993,244
52004,225
52016,239
52027,244
52039,241
52050,251
52062,264
52073,269
52084,261
52096,275
52108,275
52119,267
52130,261
52142,263
52153,271
52164,270
52176,302
52188,318
52199,327
52210,334
52221,330
52234,332
52245,323
52256,330
52268,322
52279,340
52290,369
52302,353
52314,374
52325,360
52336,360
52347,365
52359,355
52371,345
52382,321
52393,322
52405,319
52416,306
52427,299
52440,304
52451,290
52462,299
52473,281
52485,290
52496,279
52508,266
52519,266
52531,264
52542,252
52553,247
52564,248
52577,234
52588,230
52599,232
52611,223
52622,224
52634,234
52645,229
52657,220
52668,222
52679,212
52690,219
52703,229
52714,224
52725,227
52737,226
52748,233
52759,231
52771,279
52783,285
52794,381
52805,412
52816,372
52828,337
52840,330
52851,340
52862,306
52874,327
52885,352
52896,344
52909,348
52920,317
52931,308
52942,301
52954,293
52966,292
52977,282
52988,283
53000,266
53011,268
53022,259
53035,259
53046,265
53057,261
53068,267
53080,249
53091,261
53103,263
53114,247
53126,247
53137,244
53148,252
53159,240
53172,252
53183,258
53194,252
53206,257
53217,251
53228,251
53240,233
53252,240
53263,248
53274,238
53285,239
53297,237
53309,236
53320,224
53331,226
53343,235
53354,232
53366,242
53378,230
53389,230
53400,216
53411,217
53423,215
53435,208
53446,211
53457,198
53469,193
53480,187
53491,183
53504,184
53515,183
53526,190
53537,182
53549,186
53560,184
53572,178
53583,183
53595,182
53606,183
53617,176
53628,181
53641,172
53652,170
53663,164
53675,166
53686,169
53698,167
53709,176
53721,177
53732,173
53743,169
53754,174
53767,174
53778,168
53789,176
53800,174
53812,175
53823,172
53835,171
53847,172
53858,167
53869,174
53880,176
53892,173
53904,169
53915,169
53926,171
53938,174
53949,177
53960,181
53972,177
53984,175
53995,174
54006,186
54018,177
54029,178
54041,180
54052,179
54064,183
54075,179
54086,184
54098,176
54110,176
54121,169
54132,170
54144,176
54155,174
54167,180
54178,178
54190,178
54201,175
54212,175
54223,174
54236,171
54247,179
54258,172
54269,171
54281,162
54292,164
54304,166
54316,161
54327,167
54338,165
54349,165
54361,160
54373,162
54384,159
54395,157
54407,162
54418,160
54430,160
54441,154
54453,157
54464,160
54475,154
54487,160
54499,161
54510,159
54521,155
54533,159
54544,154
54555,158
54567,163
54579,161
54590,160
54601,160
54612,160
54624,164
54636,161
54647,168
54659,165
54670,165
54681,167
54692,169
54705,167
54716,170
54727,167
54738,166
54750,166
54761,165
54773,165
54785,164
54796,165
54807,165
54818,165
54831,165
54842,167
54853,161
54864,166
54876,164
54887,163
54899,165
54910,166
54922,169
54933,164
54944,172
54956,171
54968,169
54979,170
54990,170
55002,173
55013,167
55024,172
55036,170
55048,169
55059,170
55070,170
55081,177
55093,168
55105,176
55116,176
55128,175
55139,170
55150,174
55162,179
55174,170
55185,179
55196,175
55207,172
55219,172
55231,170
55242,171
55254,170
55265,172
55276,175
55287,172
55300,173
55311,170
55322,179
55333,171
55345,174
55356,179
55368,179
55379,187
55391,179
55402,188
55413,179
55425,181
55437,188
55448,184
55459,188
55471,178
55482,185
55493,177
55505,176
55517,177
55528,176
55539,180
55550,170
55563,178
55574,172
55585,171
55597,172
55608,173
55619,177
55631,167
55643,175
55654,172
55665,168
55676,171
55688,170
55700,174
55711,164
55723,167
55734,169
55745,165
55756,167
