0,149
1,150
2,151
4,149
5,149
6,149
7,150
9,150
10,149
11,150
13,148
16,147
24,145
32,144
40,146
49,143
58,142
66,148
74,146
82,145
91,145
99,144
107,143
116,141
126,146
136,144
145,145
154,147
163,148
173,148
182,147
192,147
201,145
210,145
220,146
229,146
238,151
247,153
258,148
267,145
276,143
285,144
294,144
304,144
313,146
323,145
332,146
342,148
351,148
360,146
369,147
378,144
389,143
398,146
407,146
416,148
425,143
435,145
444,146
454,148
463,149
473,151
482,147
491,147
500,145
509,144
520,147
529,150
538,152
547,151
557,151
566,147
575,149
585,157
594,155
604,152
613,157
622,151
631,151
641,149
651,150
660,147
669,149
678,146
688,143
697,145
706,141
716,142
726,147
735,144
744,145
753,147
762,151
772,153
781,154
791,157
800,153
809,152
819,151
828,150
837,150
846,149
857,152
866,151
875,146
884,143
893,144
903,142
912,143
922,142
931,143
941,142
950,147
959,147
968,149
977,146
988,146
997,146
1006,142
1016,145
1027,142
1037,144
1047,146
1058,142
1069,142
1079,143
1089,140
1099,138
1110,144
1121,141
1131,141
1141,138
1152,140
1162,138
1172,140
1183,148
1193,144
1204,153
1214,150
1224,158
1234,159
1245,159
1256,158
1266,154
1276,159
1287,156
1297,156
1307,152
1318,155
1329,151
1339,154
1349,156
1359,160
1370,158
1380,158
1391,152
1401,157
1412,152
1422,155
1432,156
1442,165
1454,157
1464,156
1474,157
1484,163
1495,170
1505,165
1516,181
1526,187
1537,198
1547,191
1557,190
1567,194
1577,198
1589,194
1599,191
1609,189
1619,198
1630,188
1640,190
1651,185
1661,185
1672,179
1682,183
1692,180
1702,178
1713,172
1724,171
1734,173
1744,171
1755,165
1765,164
1775,166
1786,165
1797,169
1807,167
1817,167
1827,165
1838,163
1849,171
1859,168
1869,161
1880,172
1890,169
1900,174
1910,168
1922,164
1932,165
1942,168
1952,167
1963,177
1973,180
1984,179
1994,189
2004,213
2015,220
2025,227
2035,244
2045,257
2057,258
2067,280
2077,289
2087,286
2098,296
2108,313
2119,304
2129,309
2140,371
2150,359
2160,336
2170,326
2182,333
2192,310
2202,300
2212,282
2223,273
2233,256
2243,255
2254,255
2265,250
2275,238
2285,247
2295,244
2306,233
2317,218
2327,213
2337,206
2348,197
2358,192
2368,185
2378,187
2390,189
2400,185
2410,182
2420,190
2430,184
2441,173
2452,172
2462,168
2472,166
2483,158
2493,156
2503,150
2514,153
2525,146
2535,145
2545,142
2555,141
2566,135
2576,134
2587,131
2597,134
2608,130
2618,133
2628,129
2638,133
2650,128
2660,129
2670,128
2680,128
2691,128
2701,127
2711,132
2722,134
2733,140
2743,142
2753,145
2763,147
2774,150
2785,149
2795,153
2805,155
2816,157
2826,157
2836,159
2847,154
2857,151
2868,161
2878,169
2888,178
2898,179
2909,182
2920,180
2930,172
2940,165
2951,160
2961,157
2971,155
2982,151
2993,150
3003,147
3013,142
3023,143
3034,142
3044,142
3055,151
3065,154
3076,161
3086,162
3096,166
3106,165
3118,161
3128,164
3138,168
3148,168
3159,167
3169,169
3180,176
3190,179
3201,182
3211,181
3221,190
3231,190
3241,194
3253,192
3263,192
3273,188
3283,183
3294,179
3304,179
3315,176
3325,172
3336,172
3346,172
3356,177
3366,179
3377,179
3388,181
3398,194
3408,193
3419,195
3429,189
3439,199
3450,194
3461,195
3471,189
3481,199
3491,197
3502,194
3513,197
3523,201
3533,197
3544,195
3554,192
3564,194
3574,189
3586,189
3596,186
3606,184
3616,179
3627,178
3637,178
3648,174
3658,171
3668,167
3679,164
3689,169
3699,166
3709,171
3721,170
3731,165
3741,163
3751,164
3762,160
3772,163
3783,160
3793,167
3804,160
3814,165
3824,160
3834,167
3846,166
3856,171
3866,168
3876,164
3887,165
3897,164
3907,167
3918,163
3929,168
3939,162
3949,168
3959,172
3970,175
3981,174
3991,175
4001,169
4012,170
4022,163
4032,167
4042,161
4054,164
4064,156
4074,163
4084,166
4094,168
4105,167
4116,162
4126,165
4136,167
4147,173
4157,167
4167,172
4178,169
4189,175
4199,180
4209,181
4219,181
4230,175
4240,170
4251,172
4261,172
4272,170
4282,172
4292,179
4302,180
4314,185
4324,179
4334,185
4344,186
4355,189
4365,190
4375,188
4386,185
4397,181
4407,183
4417,186
4427,190
4438,186
4449,188
4459,183
4469,185
4480,181
4490,181
4500,173
4511,189
4521,181
4532,177
4542,174
4552,169
4562,175
4573,177
4584,182
4594,192
4604,184
4615,177
4625,180
4635,192
4646,184
4657,185
4667,175
4677,186
4687,188
4698,198
4708,221
4719,240
4729,246
4740,275
4750,277
4760,286
4770,322
4782,311
4792,304
4802,293
4812,293
4823,281
4833,260
4844,258
4854,289
4865,289
4875,306
4885,298
4895,308
4905,308
4917,301
4927,282
4937,307
4947,302
4958,293
4968,290
4979,281
4989,268
5000,259
5010,243
5020,242
5030,232
5041,228
5052,222
5062,225
5072,224
5083,216
5093,208
5103,194
5114,190
5125,188
5135,193
5145,198
5155,184
5166,180
5177,167
5187,165
5197,155
5208,153
5218,145
5228,145
5238,138
5250,143
5260,137
5270,137
5280,132
5291,130
5301,130
5312,126
5322,131
5332,127
5343,134
5353,128
5363,135
5373,131
5385,135
5395,133
5405,142
5415,139
5426,147
5436,145
5447,153
5457,147
5468,151
5478,146
5488,152
5498,147
5510,153
5520,151
5530,151
5540,154
5551,147
5561,150
5571,145
5582,151
5593,145
5603,152
5613,152
5623,155
5634,152
5645,155
5655,150
5665,158
5676,154
5686,156
5696,162
5706,170
5718,178
5728,174
5738,179
5748,176
5758,186
5769,180
5780,181
5790,181
5800,179
5811,179
5821,175
5831,174
5842,171
5853,168
5863,163
5873,161
5883,161
5894,157
5904,159
5915,155
5925,154
5936,149
5946,154
5956,147
5966,148
5978,147
5988,147
5998,150
6008,150
6019,151
6029,150
6039,155
6050,150
6061,159
6071,154
6081,160
6091,156
6102,159
6113,156
6123,164
6133,166
6144,177
6154,169
6164,176
6175,166
6185,172
6196,159
6206,165
6216,161
6226,165
6237,169
6248,167
6258,172
6268,171
6279,173
6289,166
6299,171
6310,164
6321,172
6331,173
6341,175
6351,173
6362,179
6372,177
6383,182
6393,175
6404,177
6414,170
6424,173
6434,163
6446,172
6456,167
6466,168
6476,167
6487,166
6497,169
6508,171
6518,165
6529,160
6539,172
6549,175
6559,188
6569,194
6581,193
6591,206
6601,200
6611,190
6622,187
6632,178
6643,179
6653,168
6664,164
6674,158
6684,164
6694,156
6705,157
6716,154
6726,157
6736,160
6747,158
6757,162
6767,158
6778,160
6789,158
6799,160
6809,160
6819,161
6830,160
6841,159
6851,161
6861,161
6872,165
6882,163
6892,168
6902,174
6914,182
6924,190
6934,188
6944,186
6955,183
6965,184
6976,182
6986,195
6996,208
7007,225
7017,255
7027,276
7037,262
7049,273
7059,312
7069,344
7079,334
7090,324
7100,328
7111,305
7121,294
7132,298
7142,296
7152,299
7162,288
7174,277
7184,269
7194,260
7204,253
7215,242
7225,244
7235,241
7246,248
7257,241
7267,240
7277,235
7287,235
7298,231
7309,230
7319,227
7329,226
7340,224
7350,221
7360,207
7370,207
7382,210
7392,200
7402,198
7412,200
7422,199
7433,192
7444,185
7454,191
7464,188
7475,186
7485,182
7495,190
7506,182
7517,172
7527,167
7537,168
7547,174
7558,168
7568,158
7579,152
7589,144
7600,144
7610,136
7620,140
7630,137
7642,138
7652,134
7662,136
7672,134
7683,133
7693,135
7703,134
7714,136
7725,136
7735,143
7745,152
7755,160
7766,167
7777,166
7787,165
7797,164
7808,162
7818,162
7828,157
7839,161
7849,154
7860,162
7870,152
7880,159
7890,154
7901,156
7912,157
7922,153
7932,154
7943,153
7953,158
7963,157
7974,159
7985,152
7995,154
8005,153
8015,162
8026,172
8036,174
8047,175
8057,164
8068,166
8078,166
8088,161
8098,158
8110,158
8120,155
8130,157
8140,159
8151,159
8161,163
8172,166
8182,170
8193,166
8203,172
8213,165
8223,172
8233,174
8245,178
8255,177
8265,179
8275,177
8286,175
8296,176
8307,169
8317,165
8328,161
8338,165
8348,158
8358,160
8369,161
8380,160
8390,163
8400,166
8411,168
8421,165
8431,170
8442,169
8453,179
8463,175
8473,180
8483,177
8494,178
8505,172
8515,178
8525,171
8536,178
8546,169
8556,177
8566,173
8578,186
8588,179
8598,187
8608,183
8619,183
8629,188
8640,189
8650,197
8660,190
8671,191
8681,188
8691,194
8701,192
8713,193
8723,191
8733,192
8743,187
8754,195
8764,189
8775,200
8785,189
8796,197
8806,186
8816,195
8826,183
8838,191
8848,187
8858,190
8868,190
8879,190
8889,189
8899,184
8910,184
8921,184
8931,186
8941,180
8951,180
8962,174
8973,174
8983,181
8993,191
9004,196
9014,198
9024,204
9034,202
9046,190
9056,195
9066,182
9076,183
9086,173
9097,172
9108,171
9118,169
9128,169
9139,166
9149,165
9159,165
9170,170
9181,170
9191,170
9201,172
9211,172
9222,173
9232,171
9243,174
9253,180
9264,181
9274,180
9284,182
9294,191
9306,189
9316,202
9326,194
9336,204
9347,202
9357,216
9367,248
9378,252
9389,254
9399,251
9409,260
9419,276
9430,284
9441,271
9451,264
9461,258
9472,262
9482,249
9492,272
9503,264
9513,254
9524,295
9534,290
9544,306
9554,315
9565,306
9576,290
9586,289
9596,279
9607,285
9617,282
9627,259
9638,274
9649,263
9659,262
9669,266
9679,258
9690,267
9700,259
9711,260
9721,261
9732,247
9742,240
9752,245
9762,264
9774,254
9784,240
9794,239
9804,248
9815,259
9825,267
9836,250
9846,245
9857,238
9867,242
9877,227
9887,217
9897,206
9909,212
9919,204
9929,201
9939,189
9950,186
9960,173
9971,174
9981,164
9992,164
10002,158
10013,162
10024,161
10037,157
10048,154
10059,153
10071,160
10082,155
10093,155
10105,152
10117,154
10128,155
10139,158
10150,159
10162,161
10174,171
10185,169
10196,180
10208,182
10219,179
10230,186
10243,179
10254,181
10265,179
10276,174
10288,175
10299,165
10311,175
10322,171
10334,171
10345,174
10356,168
10369,174
10380,164
10391,178
10402,175
10414,174
10425,174
10437,175
10448,179
10460,169
10471,172
10482,168
10493,173
10506,166
10517,165
10528,168
10540,163
10551,170
10562,171
10574,171
10586,169
10597,169
10608,171
10619,163
10631,167
10643,170
10654,167
10665,165
10677,163
10688,166
10699,163
10712,171
10723,171
10734,170
10745,171
10757,169
10769,172
10780,168
10791,170
10803,168
10814,166
10825,163
10838,162
10849,162
10860,160
10871,163
10883,161
10894,163
10906,161
10917,160
10929,165
10940,165
10951,165
10962,168
10975,167
10986,167
10997,168
11009,170
11020,173
11031,172
11043,169
11055,170
11066,170
11077,166
11088,171
11101,173
11112,173
11123,169
11134,170
11146,171
11157,168
11169,172
11181,172
11192,173
11203,172
11214,172
11226,175
11238,172
11249,177
11260,174
11272,174
11283,176
11294,174
11307,179
11318,173
11329,180
11340,181
11352,176
11363,182
11375,177
11386,189
11398,177
11409,180
11420,180
11432,176
11444,183
11455,179
11466,188
11478,181
11489,183
11501,182
11512,181
11524,186
11535,182
11546,194
11557,188
11570,187
11581,189
11592,182
11603,189
11615,178
11626,185
11638,184
11650,189
11661,192
11672,191
11683,203
11695,198
11707,205
11718,203
11729,202
11741,207
11752,203
11763,207
11776,195
11787,205
11798,204
11809,203
11821,206
11833,200
11844,200
11855,191
11867,198
11878,200
11889,196
11901,197
11913,205
11924,202
11935,192
11947,194
11958,186
11970,183
11981,175
11993,174
12004,181
12015,172
12026,176
12039,176
12050,178
12061,181
12072,179
12084,179
12095,176
12107,182
12119,180
12130,198
12141,202
12152,213
12164,206
12176,205
12187,215
12198,221
12210,217
12221,229
12233,235
12244,237
12256,262
12267,269
12278,299
12290,287
12302,298
12313,277
12324,291
12336,302
12347,296
12358,309
12370,289
12382,294
12393,287
12404,296
12416,281
12427,268
12439,286
12450,283
12462,286
12473,280
12484,270
12495,265
12508,257
12519,244
12530,227
12541,229
12553,228
12565,231
12576,228
12588,219
12599,225
12610,236
12621,245
12634,236
12645,228
12656,230
12667,233
12679,219
12690,206
12702,208
12713,205
12725,206
12736,197
12747,188
12759,187
12771,175
12782,173
12793,172
12805,168
12816,165
12827,160
12839,160
12851,156
12862,162
12873,158
12884,158
12897,156
12908,153
12919,156
12931,155
12942,159
12953,161
12965,164
12977,167
12988,170
12999,173
13010,168
13022,183
13034,185
13045,183
13057,192
13068,193
13079,197
13090,185
13103,191
13114,189
13125,191
13136,193
13148,191
13159,197
13171,187
13182,186
13194,194
13205,212
13216,218
13228,224
13240,215
13251,207
13262,197
13274,192
13285,189
13297,185
13308,184
13320,184
13331,187
13342,188
13353,189
13366,191
13377,192
13388,191
13400,195
13411,197
13422,196
13434,191
13446,191
13457,188
13468,191
13479,190
13491,192
13503,194
13514,192
13526,190
13537,198
13548,188
13559,205
13572,211
13583,221
13594,221
13605,218
13617,223
13628,208
13640,214
13651,213
13663,206
13674,206
13685,204
13698,206
13709,203
13720,207
13731,202
13743,208
13754,204
13766,205
13777,209
13789,205
13800,209
13811,208
13822,209
13835,213
13846,210
13857,214
13869,210
13880,221
13891,217
13903,216
13915,218
13926,218
13937,232
13948,223
13960,225
13972,222
13983,230
13995,227
14006,224
14017,233
14029,228
14041,231
14052,226
14063,225
14074,221
14086,213
14098,215
14109,208
14120,206
14132,196
14143,195
14154,195
14167,187
14178,193
14189,189
14200,196
14212,193
14223,199
14235,200
14246,199
14258,197
14269,205
14280,213
14291,218
14304,229
14315,228
14326,225
14338,228
14349,220
14361,221
14372,216
14384,223
14395,230
14406,247
14417,251
14430,273
14441,267
14452,270
14464,283
14475,283
14486,286
14498,290
14510,305
14521,302
14532,324
14543,317
14555,312
14567,306
14578,296
14589,286
14601,272
14612,267
14623,260
14636,255
14647,251
14658,255
14669,246
14681,239
14692,247
14704,247
14715,230
14727,238
14738,232
14749,221
14761,215
14773,200
14784,200
14795,199
14807,206
14818,217
14830,208
14841,209
14853,228
14864,214
14875,218
14886,219
14899,223
14910,231
14921,223
14932,224
14944,221
14955,233
14967,231
14979,224
14990,218
15001,212
15012,209
15024,204
15036,208
15047,208
15058,203
15070,206
15081,198
15092,201
15105,200
15116,207
15127,209
15138,212
15150,210
15162,210
15173,214
15184,214
15196,217
15207,218
15218,217
15230,211
15242,206
15253,208
15264,211
15276,216
15287,215
15299,211
15310,214
15322,211
15333,218
15344,218
15355,217
15368,216
15379,216
15390,218
15401,210
15413,212
15424,212
15436,223
15448,216
15459,217
15470,214
15481,215
15494,220
15505,213
15516,216
15527,211
15539,206
15550,203
15562,212
15574,212
15585,216
15596,224
15607,222
15619,226
15631,220
15642,228
15653,232
15665,229
15676,237
15687,227
15699,232
15711,226
15722,230
15733,233
15745,229
15756,237
15768,232
15779,236
15791,230
15802,236
15813,242
15824,232
15837,239
15848,234
15859,239
15870,234
15882,243
15894,248
15905,238
15917,244
15928,241
15939,244
15950,236
15963,246
15974,251
15985,238
15996,245
16008,237
16019,241
16031,238
16043,243
16054,249
16065,242
16076,250
16088,242
16100,251
16111,246
16122,251
16134,258
16145,250
16156,256
16168,251
16180,252
16191,253
16202,254
16214,257
16226,247
16237,253
16248,244
16260,251
16271,253
16282,250
16294,255
16306,246
16317,250
16328,245
16339,246
16351,250
16363,242
16374,251
16386,244
16397,248
16408,251
16419,256
16432,258
16443,252
16454,244
16465,237
16477,226
16488,220
16500,221
16512,225
16523,221
16534,219
16545,223
16557,218
16569,224
16580,225
16591,228
16603,226
16614,225
16626,228
16637,225
16649,234
16660,233
16671,232
16683,228
16695,226
16706,228
16717,223
16729,233
16740,227
16751,227
16763,227
16775,225
16786,225
16797,216
16808,226
16820,225
16832,221
16843,218
16855,217
16866,223
16877,222
16888,229
16901,229
16912,232
16923,231
16934,227
16946,235
16958,226
16969,239
16980,247
16992,242
17003,240
17014,232
17027,236
17038,230
17049,231
17060,225
17072,246
17083,236
17095,237
17106,241
17118,222
17129,218
17140,209
17152,208
17164,209
17175,201
17186,207
17198,206
17209,209
17220,205
17232,209
17244,210
17255,206
17266,217
17277,211
17290,228
17301,218
17312,242
17324,238
17335,251
17346,267
17358,259
17370,266
17381,259
17392,251
17403,266
17415,283
17427,291
17438,306
17449,299
17461,333
17472,345
17483,350
17496,343
17507,362
17518,346
17529,362
17541,356
17552,359
17564,338
17575,322
17587,307
17598,322
17609,308
17620,294
17633,301
17644,285
17655,280
17667,263
17678,286
17690,293
17701,291
17713,288
17724,280
17735,258
17746,257
17759,263
17770,260
17781,256
17793,262
17804,247
17815,254
17827,246
17839,241
17850,246
17861,261
17872,250
17884,252
17896,258
17907,266
17918,260
17930,258
17941,259
17952,247
17965,246
17976,239
17987,240
17998,228
18010,223
18022,225
18033,225
18044,231
18056,231
18067,230
18078,225
18091,227
18102,226
18113,227
18124,231
18136,230
18147,231
18159,225
18170,227
18182,228
18193,228
18204,234
18215,229
18228,229
18239,225
18250,226
18262,228
18273,228
18284,236
18296,231
18308,233
18319,235
18330,230
18341,241
18353,238
18365,243
18376,242
18387,239
18399,245
18410,238
18422,245
18434,241
18445,237
18456,231
18467,229
18479,230
18491,230
18502,247
18513,248
18525,245
18536,239
18547,235
18560,233
18571,242
18582,243
18593,248
18605,257
18616,249
18628,253
18639,252
18651,254
18662,261
18673,261
18684,265
18697,260
18708,267
18719,266
18731,268
18742,273
18753,269
18765,270
18777,258
18788,263
18799,255
18810,261
18823,262
18834,259
18845,263
18856,255
18868,257
18879,251
18891,255
18903,257
18914,252
18925,253
18936,247
18948,255
18960,249
18971,260
18982,264
18994,256
19005,258
19016,257
19028,263
19040,261
19051,266
19062,268
19074,257
19085,259
19097,258
19108,261
19120,262
19131,265
19142,268
19154,260
19166,262
19177,261
19188,264
19200,268
19211,269
19223,274
19234,268
19246,267
19257,264
19268,263
19279,268
19292,267
19303,267
19314,256
19325,260
19337,257
19348,259
19360,263
19372,263
19383,265
19394,254
19405,258
19417,253
19429,259
19440,262
19451,256
19463,260
19474,253
19485,263
19497,262
19509,263
19520,268
19531,259
19543,262
19555,256
19566,260
19577,259
19589,265
19600,269
19611,261
19623,263
19635,260
19646,265
19657,260
19668,268
19680,272
19692,262
19703,265
19715,263
19726,265
19737,266
19748,273
19761,275
19772,265
19783,265
19794,262
19806,264
19817,270
19829,270
19841,271
19852,261
19863,264
19874,260
19887,258
19898,261
19909,261
19920,264
19932,256
19943,258
19955,255
19966,257
19978,262
19989,262
20000,264
20012,257
20024,261
20035,262
20046,266
20058,271
20069,266
20080,267
20092,262
20104,264
20115,265
20126,267
20137,269
20149,261
20161,261
20172,254
20184,256
20195,261
20206,264
20218,267
20230,258
20241,260
20252,259
20263,261
20275,262
20287,270
20298,273
20310,264
20321,263
20332,261
20343,258
20356,260
20367,264
20378,267
20389,257
20401,257
20412,257
20424,255
20435,263
20447,262
20458,260
20469,255
20481,254
20493,257
20504,253
20515,259
20527,259
20538,256
20549,249
20561,250
20573,258
20584,272
20595,275
20606,275
20619,277
20630,269
20641,268
20653,269
20664,267
20675,270
20687,265
20699,259
20710,255
20721,254
20732,257
20744,258
20756,265
20767,262
20779,258
20790,256
20801,260
20812,260
20825,265
20836,266
20847,261
20858,259
20870,257
20881,254
20893,255
20904,260
20916,263
20927,256
20938,255
20950,257
20962,257
20973,261
20984,268
20996,274
21007,268
21019,281
21030,270
21042,282
21053,282
21064,284
21075,289
21088,276
21099,275
21110,274
21122,267
21133,271
21144,271
21156,270
21168,262
21179,265
21190,264
21201,267
21213,274
21225,271
21236,281
21248,281
21259,297
21270,291
21281,306
21294,313
21305,314
21316,329
21327,314
21339,321
21351,318
21362,333
21373,344
21385,324
21396,312
21407,295
21420,288
21431,274
21442,278
21453,288
21465,278
21476,282
21488,270
21499,264
21511,256
21522,253
21533,258
21544,247
21557,256
21568,247
21579,245
21591,238
21602,237
21613,240
21625,230
21637,238
21648,233
21659,245
21670,236
21683,246
21694,244
21705,238
21716,239
21728,237
21739,232
21751,228
21763,228
21774,233
21785,228
21796,225
21808,221
21820,224
21831,219
21842,223
21854,227
21865,225
21876,224
21889,220
21900,220
21911,223
21922,223
21934,226
21945,227
21957,224
21968,223
21980,220
21991,221
22002,211
22013,212
22026,200
22037,194
22048,184
22060,186
22071,180
22083,182
22094,178
22106,178
22117,171
22128,178
22139,173
22152,173
22163,178
22174,176
22185,183
22197,178
22208,186
22220,186
22232,184
22243,185
22254,183
22265,187
22277,176
22289,184
22300,180
22311,174
22323,182
22334,181
22345,186
22358,173
22369,185
22380,188
22391,188
22403,191
22415,191
22426,193
22437,185
22449,197
22460,192
22471,190
22483,192
22495,194
22506,202
22517,201
22529,208
22540,211
22552,208
22563,216
22575,217
22586,222
22597,217
22608,224
22621,223
22632,219
22643,221
22654,215
22666,221
22677,217
22689,220
22701,220
22712,221
22723,214
22734,222
22746,224
22758,223
22769,227
22780,216
22792,223
22803,223
22815,243
22827,251
22838,253
22849,256
22860,245
22872,261
22884,242
22895,231
22906,247
22918,265
22929,253
22940,294
22952,307
22964,326
22975,326
22986,325
22998,311
23009,305
23021,278
23032,269
23044,278
23055,276
23066,268
23077,259
23090,248
23101,239
23112,239
23123,239
23135,230
23147,223
23158,227
23170,230
23181,222
23192,222
23203,230
23216,226
23227,216
23238,218
23249,222
23261,206
23272,195
23284,193
23296,190
23307,188
23318,192
23329,198
23341,195
23353,188
23364,187
23375,183
23387,184
23398,179
23409,175
23421,178
23433,171
23444,173
23455,170
23467,167
23478,166
23490,161
23501,161
23513,157
23524,159
23535,159
23547,158
23559,158
23570,156
23581,162
23592,156
23604,165
23616,169
23627,167
23639,174
23650,173
23661,180
23672,175
23685,185
23696,188
23707,186
23718,189
23730,185
23741,194
23753,185
23764,191
23776,189
23787,185
23798,184
23810,181
23822,187
23833,180
23844,184
23856,183
23867,181
23878,182
23890,193
23902,189
23913,202
23924,209
23936,208
23948,212
23959,204
23970,203
23982,197
23993,197
24004,193
24016,184
24028,183
24039,178
24050,176
24061,180
24073,180
24085,180
24096,178
24108,181
24119,178
24130,181
24141,180
24154,182
24165,183
24176,177
24187,178
24199,177
24210,176
24222,178
24233,177
24245,179
24256,174
24267,174
24280,175
24291,173
24302,175
24313,175
24325,179
24336,173
24348,174
24359,176
24371,172
24382,179
24393,175
24404,175
24417,171
24428,176
24439,174
24451,171
24462,183
24473,176
24485,175
24497,170
24508,172
24519,175
24530,177
24542,180
24554,177
24565,180
24577,174
24588,173
24599,170
24611,173
24623,175
24634,181
24645,182
24656,185
24668,177
24680,186
24691,186
24702,184
24714,185
24725,186
24736,191
24749,181
24760,190
24771,190
24782,192
24794,194
24805,193
24817,200
24828,188
24840,197
24851,193
24862,192
24873,191
24886,191
24897,194
24908,180
24920,194
24931,196
24942,196
24954,194
24966,196
24977,202
24988,189
24999,201
25012,201
25023,201
25034,209
25046,210
25057,213
25068,212
25080,222
25092,221
25103,214
25114,215
25125,213
25137,234
25149,236
25160,256
25171,245
25183,244
25194,232
25205,231
25218,235
25229,227
25240,234
25251,231
25263,227
25274,221
25286,217
25297,228
25309,214
25320,214
25331,206
25344,209
25355,208
25366,200
25377,212
25389,207
25400,215
25412,210
25423,225
25435,224
25446,228
25457,234
25468,228
25481,240
25492,239
25503,255
25515,249
25526,250
25537,259
25549,249
25561,241
25572,245
25583,243
25594,269
25606,268
25618,289
25629,286
25640,286
25652,296
25663,317
25674,326
25687,301
25698,296
25709,299
25720,286
25732,284
25744,267
25755,262
25766,274
25778,260
25789,257
25800,251
25812,246
25824,246
25835,265
25846,259
25858,257
25869,261
25881,267
25892,262
25904,268
25915,254
25926,262
25937,269
25950,263
25961,247
25972,240
25984,225
25995,224
26006,221
26018,213
26030,215
26041,209
26052,211
26063,211
26076,214
26087,215
26098,208
26109,206
26121,203
26132,205
26144,198
26156,200
26167,202
26178,199
26189,198
26201,196
26213,207
26224,200
26235,209
26247,207
26258,203
26269,208
26281,205
26293,210
26304,207
26315,213
26327,209
26338,209
26350,205
26361,201
26373,207
26384,204
26395,209
26406,207
26419,209
26430,207
26441,204
26452,210
26464,206
26476,208
26487,201
26499,206
26510,201
26521,204
26532,202
26545,206
26556,207
26567,202
26578,204
26590,204
26601,209
26613,212
26625,211
26636,216
26647,207
26658,210
26670,214
26682,213
26693,214
26704,217
26716,220
26727,214
26738,214
26750,215
26762,212
26773,214
26784,216
26796,217
26808,211
26819,213
26830,213
26842,214
26853,219
26864,215
26876,219
26888,214
26899,216
26910,218
26921,219
26933,221
26945,216
26956,219
26968,213
26979,216
26990,213
27001,215
27014,223
27025,217
27036,220
27047,215
27059,215
27070,218
27082,221
27094,227
27105,217
27116,218
27127,215
27139,218
27151,221
27162,225
27173,227
27185,218
27196,223
27208,216
27219,224
27231,222
27242,223
27253,227
27265,217
27277,220
27288,221
27299,222
27311,223
27322,225
27333,228
27345,221
27357,225
27368,223
27379,221
27390,225
27402,224
27414,227
27425,218
27437,220
27448,214
27459,221
27470,221
27483,220
27494,225
27505,217
27516,221
27528,221
27540,222
27551,226
27563,218
27574,222
27585,217
27596,220
27609,222
27620,222
27631,224
27642,218
27654,216
27665,212
27677,216
27688,213
27700,220
27711,228
27722,220
27734,222
27746,219
27757,221
27768,218
27780,222
27791,224
27802,212
27814,215
27826,212
27837,211
27848,211
27859,212
27871,217
27883,208
27894,206
27906,203
27917,207
27928,209
27940,212
27952,220
27963,210
27974,212
27985,212
27997,212
28009,214
28020,216
28032,216
28043,210
28054,212
28065,207
28078,208
28089,213
28100,211
28111,214
28123,206
28134,207
28146,211
28157,206
28169,212
28180,211
28191,210
28203,212
28215,212
28226,220
28237,212
28249,220
28260,217
28272,217
28283,218
28295,216
28306,224
28317,223
28328,220
28341,220
28352,219
28363,219
28375,214
28386,224
28397,222
28409,219
28421,220
28432,219
28443,221
28454,213
28466,222
28478,222
28489,222
28500,226
28512,225
28523,228
28534,217
28547,227
28558,226
28569,220
28580,212
28592,217
28603,223
28615,213
28626,226
28638,228
28649,229
28660,230
28673,244
28684,245
28695,240
28706,247
28718,244
28729,246
28741,241
28752,237
28764,252
28775,245
28786,254
28797,254
28810,249
28821,240
28832,254
28844,255
28855,255
28866,264
28878,254
28890,262
28901,253
28912,256
28923,259
28935,257
28947,274
28958,256
28969,271
28981,261
28992,260
29004,275
29016,269
29027,276
29038,252
29049,249
29061,254
29073,245
29084,266
29095,301
29107,296
29118,308
29129,301
29142,315
29153,309
29164,309
29175,323
29187,305
29198,283
29210,273
29221,274
29233,260
29244,281
29255,261
29266,259
29279,252
29290,245
29301,241
29313,248
29324,267
29335,267
29347,259
29359,249
29370,245
29381,264
29392,255
29405,259
29416,261
29427,260
29438,245
29450,244
29461,235
29473,235
29485,239
29496,234
29507,228
29518,224
29530,225
29542,226
29553,232
29564,239
29576,233
29587,232
29598,233
29611,229
29622,231
29633,233
29644,232
29656,225
29667,222
29679,223
29690,220
29702,227
29713,229
29724,228
29735,223
29748,223
29759,227
29770,221
29782,233
29793,233
29805,234
29816,234
29828,234
29839,241
29850,234
29861,245
29874,245
29885,244
29896,242
29907,240
29919,246
29930,239
29942,248
29954,244
29965,238
29976,234
29987,230
29999,236
30011,229
30022,236
30033,234
30045,229
30056,231
30067,240
30080,237
30091,259
30102,274
30113,273
30125,286
30137,276
30148,275
30159,263
30171,262
30182,262
30193,250
30205,248
30217,241
30228,239
30239,238
30251,243
30262,248
30274,239
30285,241
30297,238
30308,234
30319,241
30330,243
30343,246
30354,237
30365,242
30376,237
30388,243
30399,245
30411,252
30423,267
30434,269
30445,288
30456,292
30469,311
30480,302
30491,312
30502,320
30514,313
30525,321
30537,312
30548,318
30560,319
30571,317
30582,322
30594,312
30606,317
30617,308
30628,312
30640,313
30651,306
30662,311
30674,303
30686,307
30697,302
30708,311
30720,320
30731,314
30743,324
30754,316
30766,322
30777,314
30788,321
30799,330
30812,318
30823,323
30834,316
30845,319
30857,311
30869,318
30880,326
30892,314
30903,321
30914,312
30925,322
30938,317
30949,325
30960,336
30971,326
30983,328
30994,321
31006,322
31017,322
31029,325
31040,332
31051,322
31063,326
31075,310
31086,328
31097,320
31109,325
31120,330
31131,322
31143,326
31155,312
31166,328
31177,322
31188,322
31200,331
31212,320
31223,332
31235,316
31246,321
31257,329
31269,323
31281,332
31292,325
31303,332
31314,323
31326,329
31338,333
31349,322
31361,331
31372,322
31383,333
31394,320
31407,328
31418,335
31429,321
31440,332
31452,323
31463,330
31475,315
31486,323
31498,328
31509,305
31520,300
31532,285
31544,275
31555,271
31566,271
31578,267
31589,258
31601,257
31612,261
31624,251
31635,259
31646,255
31657,252
31670,252
31681,249
31692,252
31704,244
31715,253
31726,254
31738,254
31750,253
31761,254
31772,261
31783,252
31795,258
31807,256
31818,255
31830,250
31841,250
31852,253
31863,247
31876,258
31887,260
31898,258
31909,257
31921,253
31932,261
31944,258
31955,264
31967,262
31978,260
31989,259
32002,257
32013,265
32024,261
32035,259
32047,261
32058,264
32070,266
32081,268
32093,276
32104,276
32115,279
32126,272
32139,279
32150,275
32161,271
32173,276
32184,269
32195,269
32207,255
32219,256
32230,257
32241,254
32252,258
32264,256
32276,255
32287,247
32299,250
32310,247
32321,242
32333,251
32345,253
32356,251
32367,245
32378,247
32390,248
32402,239
32413,248
32424,245
32436,244
32447,241
32458,245
32471,248
32482,246
32493,254
32504,246
32516,244
32527,240
32539,240
32550,247
32562,243
32573,250
32584,243
32595,248
32608,241
32619,244
32630,247
32642,249
32653,265
32665,252
32676,262
32688,253
32699,257
32710,265
32721,261
32734,286
32745,268
32756,291
32768,295
32779,290
32790,295
32802,310
32814,309
32825,336
32836,310
32847,322
32859,318
32871,314
32882,347
32893,359
32905,339
32916,332
32927,326
32940,322
32951,345
32962,359
32973,356
32985,342
32996,326
33008,315
33019,305
33031,304
33042,304
33053,301
33065,292
33077,302
33088,295
33099,294
33111,320
33122,310
33134,301
33145,294
33157,292
33168,281
33179,272
33190,274
33203,265
33214,259
33225,257
33236,261
33248,271
33259,280
33271,283
33283,273
33294,267
33305,265
33316,271
33328,268
33340,272
33351,273
33362,262
33374,258
33385,258
33396,254
33409,256
33420,261
33431,263
33442,257
33454,253
33466,255
33477,255
33488,260
33500,263
33511,263
33522,255
33534,260
33546,264
33557,258
33568,270
33580,269
33591,270
33603,265
33614,267
33626,271
33637,265
33648,274
33659,272
33672,266
33683,261
33694,260
33705,258
33717,258
33728,268
33740,267
33752,259
33763,261
33774,259
33785,265
33798,273
33809,279
33820,273
33831,278
33843,274
33854,285
33866,283
33878,292
33889,300
33900,291
33911,293
33923,291
33935,295
33946,294
33957,304
33969,309
33980,297
33991,299
34003,294
34015,300
34026,303
34037,308
34049,311
34060,301
34072,302
34083,300
34095,304
34106,305
34117,308
34129,311
34141,299
34152,300
34163,294
34174,302
34186,303
34198,303
34209,305
34221,295
34232,299
34243,295
34254,298
34267,304
34278,300
34289,304
34300,294
34312,298
34323,295
34335,303
34347,305
34358,299
34369,302
34380,294
34392,299
34404,298
34415,304
34426,311
34438,301
34449,304
34460,298
34472,306
34484,298
34495,307
34506,316
34518,304
34530,306
34541,302
34552,306
34564,304
34575,312
34586,318
34598,306
34610,307
34621,304
34632,307
34643,307
34655,313
34667,316
34678,303
34690,305
34701,301
34712,304
34723,307
34736,309
34747,313
34758,302
34769,302
34781,297
34792,303
34804,305
34816,305
34827,309
34838,297
34849,303
34861,299
34873,302
34884,304
34895,300
34907,302
34918,293
34930,299
34941,298
34953,304
34964,308
34975,301
34987,303
34999,293
35010,297
35021,290
35033,298
35044,303
35055,293
35067,295
35079,288
35090,295
35101,287
35112,298
35124,302
35136,290
35147,291
35159,288
35170,293
35181,289
35192,298
35205,303
35216,290
35227,292
35238,290
35250,294
35262,294
35273,299
35284,303
35296,291
35307,293
35318,287
35331,298
35342,295
35353,295
35364,299
35376,286
35387,294
35399,289
35410,290
35422,297
35433,297
35444,299
35456,286
35468,285
35479,290
35490,283
35502,290
35513,285
35524,286
35536,283
35548,289
35559,286
35570,289
35581,301
35594,293
35605,295
35616,288
35628,292
35639,284
35650,288
35662,295
35674,288
35685,288
35696,282
35707,284
35719,282
35731,288
35742,294
35753,287
35765,290
35776,285
35787,291
35800,289
35811,302
35822,309
35833,295
35845,296
35856,294
35868,302
35879,303
35891,311
35902,314
35913,299
35924,304
35937,302
35948,309
35959,305
35971,303
35982,312
35994,300
36005,309
36017,308
36028,312
36039,315
36050,317
36063,318
36074,309
36085,320
36097,308
36108,318
36119,316
36131,313
36143,320
36154,310
36165,318
36176,307
36188,315
36200,323
36211,316
36222,320
36234,314
36245,318
36256,320
36269,322
36280,325
36291,313
36302,321
36314,316
36326,326
36337,316
36348,325
36360,332
36371,318
36382,323
36395,316
36406,321
36417,319
36428,331
36440,336
36451,319
36463,324
36474,316
36486,322
36497,315
36508,326
36519,331
36532,315
36543,321
36554,314
36566,323
36577,317
36588,320
36600,324
36612,312
36623,318
36634,308
36645,326
36657,321
36669,321
36680,326
36691,314
36703,317
36714,311
36726,315
36738,315
36749,312
36760,319
36771,307
36783,320
36795,310
36806,319
36817,324
36829,317
36840,324
36851,316
36864,325
36875,316
36886,327
36897,334
36909,321
36920,329
36932,321
36943,334
36955,313
36966,329
36977,331
36988,318
37001,324
37012,316
37023,323
37035,318
37046,327
37058,334
37069,320
37081,325
37092,318
37103,320
37114,314
37127,323
37138,332
37149,319
37160,322
37172,323
37183,323
37195,328
37207,329
37218,336
37229,324
37240,328
37252,322
37264,327
37275,329
37286,332
37298,341
37309,329
37320,332
37332,328
37344,333
37355,335
37366,330
37378,337
37389,327
37401,334
37412,327
37424,333
37435,338
37446,329
37458,337
37470,331
37481,343
37492,330
37504,347
37515,352
37527,342
37538,351
37550,716
37561,1023
37573,1023
37585,1023
37599,1023
37611,1023
37623,1023
37636,1023
37648,1023
37661,1023
37673,1023
37686,1023
37698,1023
37710,1023
37724,1023
37736,1023
37748,1023
37761,1023
37773,1023
37785,1023
37798,1023
37811,1023
37823,1023
37835,1023
37848,1023
37861,1023
37873,1023
37885,1023
37898,1023
37910,1023
37923,1023
37936,1023
37948,1023
37960,1023
37972,1023
37985,1023
37998,1023
38010,1023
38023,1023
38035,1023
38047,1023
38061,1023
38073,1023
38085,1023
38097,1023
38110,1023
38123,1023
38135,1023
38148,1023
38160,1023
38172,1023
38184,1023
38198,1023
38210,1023
38222,1023
38235,1023
38247,1023
38260,1023
38273,1023
38285,1023
38297,1023
38309,1023
38323,1023
38335,1023
38347,1023
38360,1023
38372,1023
38384,1023
38397,1023
38410,1023
38422,1023
38434,1023
38447,1023
38460,1023
38472,1023
38484,1023
38497,1023
38509,1023
38522,1023
38535,1023
38547,1023
38559,1023
38572,1023
38584,1023
38597,1023
38609,1023
38622,1023
38634,1023
38646,1023
38660,1023
38672,1023
38684,1023
38696,1023
38709,1023
38722,1023
38734,1023
38747,1023
38759,1023
38771,1023
38784,1023
38797,1023
38809,1023
38821,1023
38834,1023
38846,1023
38859,928
38871,787
38882,676
38893,581
38904,505
38916,443
38928,400
38939,355
38950,325
38962,295
38973,271
38984,257
38996,235
39008,223
39019,230
39030,266
39042,285
39053,335
39065,365
39076,393
39088,406
39099,412
39110,436
39122,437
39134,463
39145,479
39156,491
39168,507
39179,521
39191,566
39202,643
39214,645
39225,552
39236,480
39247,424
39260,385
39271,349
39282,312
39293,288
39305,268
39316,249
39328,235
39340,229
39351,218
39362,207
39373,196
39385,188
39397,179
39408,177
39419,171
39431,170
39442,165
39454,167
39465,165
39477,160
39488,159
39499,158
39511,156
39523,155
39534,153
39545,151
39557,154
39568,152
39579,148
39591,149
39603,149
39614,148
39625,152
39636,149
39648,148
39660,148
39671,148
39683,146
39694,145
39705,154
39716,155
39729,153
39740,156
39751,156
39762,162
39774,158
39785,165
39797,164
39809,161
39820,164
39831,190
39842,342
39855,773
39866,1023
39878,1023
39890,1023
39903,1023
39915,1023
39928,1023
39941,1023
39953,1023
39965,1023
39977,1023
39991,1023
40003,1023
40015,1023
40028,1023
40040,1023
40053,1023
40066,1023
40078,1023
40090,1023
40102,1023
40115,1023
40128,1023
40140,1023
40153,1023
40165,1023
40177,1023
40190,1023
40203,1023
40215,1023
40227,1023
40240,1023
40253,1023
40265,1023
40278,1023
40290,1023
40302,1023
40314,1023
40328,987
40339,842
40350,720
40361,617
40373,535
40384,472
40396,418
40408,369
40419,335
40430,300
40441,277
40454,250
40465,233
40476,224
40487,210
40499,204
40510,195
40522,191
40534,182
40545,179
40556,180
40567,176
40579,180
40591,175
40602,179
40613,173
40625,167
40636,170
40647,168
40659,174
40671,170
40682,178
40693,171
40705,169
40716,170
40728,169
40739,171
40751,165
40762,172
40773,177
40785,173
40797,172
40808,168
40819,173
40830,168
40842,175
40854,178
40865,179
40877,179
40888,173
40899,173
40910,165
40923,170
40934,170
40945,165
40956,170
40968,166
40979,168
40991,161
41003,164
41014,164
41025,159
41036,163
41048,159
41060,161
41071,158
41082,160
41094,161
41105,159
41116,162
41128,158
41140,165
41151,161
41162,162
41174,165
41186,162
41197,163
41208,158
41220,162
41231,162
41242,160
41254,166
41266,163
41277,164
41288,159
41299,166
41311,161
41323,155
41334,160
41346,159
41357,158
41368,152
41379,158
41392,157
41403,154
41414,159
41425,158
41437,160
41448,154
41460,156
41472,154
41483,151
41494,154
41505,152
41518,155
41529,148
41540,153
41551,154
41563,149
41574,148
41586,146
41597,149
41609,145
41620,154
41631,154
41643,148
41655,151
41666,149
41677,149
41689,148
41700,147
41711,152
41723,149
41735,153
41746,150
41757,155
41768,153
41780,155
41792,157
41803,154
41815,155
41826,149
41837,152
41848,147
41861,147
41872,152
41883,152
41894,156
41906,150
41918,157
41929,152
41940,149
41952,151
41963,151
41974,154
41987,149
41998,155
42009,153
42020,150
42032,151
42043,151
42055,155
42066,148
42078,155
42089,155
42100,151
42112,153
42124,151
42135,158
42146,150
42158,157
42169,158
42180,153
42192,158
42204,156
42215,161
42226,154
42237,157
42250,164
42261,160
42272,159
42284,157
42295,163
42306,155
42318,156
42330,154
42341,149
42352,150
42363,147
42375,151
42387,149
42398,149
42409,149
42421,147
42432,148
42443,143
42456,148
42467,147
42478,149
42489,153
42501,150
42512,150
42524,145
42535,149
42547,151
42558,147
42569,147
42580,144
42593,143
42604,139
42615,145
42627,146
42638,145
42650,148
42661,153
42673,162
42684,157
42695,163
42706,164
42719,167
42730,169
42741,163
42753,162
42764,157
42775,161
42787,166
42799,168
42810,169
42821,172
42832,180
42844,195
42856,188
42867,181
42878,182
42890,191
42901,180
42912,183
42925,176
42936,179
42947,182
42958,185
42970,190
42981,187
42993,188
43004,188
43016,184
43027,194
43038,188
43051,187
43062,181
43073,173
43084,163
43096,165
43107,167
43119,165
43130,164
43142,173
43153,186
43164,219
43175,230
43188,281
43199,264
43210,299
43222,285
43233,271
43244,290
43256,287
43268,279
43279,273
43290,260
43301,258
43313,266
43325,273
43336,258
43347,249
43359,228
43370,229
43382,214
43394,213
43405,212
43416,216
43427,221
43439,210
43451,208
43462,192
43473,182
43485,187
43496,175
43507,171
43520,164
43531,160
43542,156
43553,156
43565,157
43576,154
43588,150
43599,144
43611,146
43622,144
43633,149
43644,150
43657,145
43668,149
43679,146
43691,149
43702,147
43714,147
43725,148
43737,146
43748,151
43759,145
43770,149
43783,145
43794,144
43805,154
43816,156
43828,157
43839,155
43851,161
43863,158
43874,154
43885,156
43896,153
43908,159
43920,157
43931,156
43942,155
43954,152
43965,159
43976,159
43988,163
44000,157
44011,161
44022,159
44034,153
44045,157
44057,153
44068,150
44080,144
44091,147
44102,144
44114,141
44126,145
44137,146
44148,143
44160,142
44171,143
44183,143
44194,140
44206,140
44217,138
44228,140
44239,140
44252,138
44263,142
44274,145
44285,150
44297,147
44308,147
44320,147
44332,143
44343,141
44354,140
44365,145
44377,145
44389,149
44400,148
44411,145
44423,144
44434,146
44445,144
44457,145
44469,144
44480,142
44491,140
44503,140
44515,141
44526,144
44537,143
44549,147
44560,149
44571,145
44583,146
44595,148
44606,148
44617,146
44628,149
44640,147
44652,148
44663,145
44675,143
44686,146
44697,144
44708,149
44721,154
44732,152
44743,159
44754,159
44766,161
44777,159
44789,165
44801,167
44812,165
44823,166
44834,164
44847,164
44858,157
44869,160
44880,164
44892,160
44903,158
44915,155
44926,158
44938,157
44949,157
44960,161
44972,162
44984,162
44995,159
45006,158
45018,153
45029,152
45040,159
45052,165
45064,178
45075,173
45086,177
45097,185
45109,183
45121,188
45132,187
45144,188
45155,177
45166,180
45177,179
45190,173
45201,178
45212,168
45223,178
45235,171
45247,175
45258,183
45270,181
45281,181
45292,174
45303,173
45316,165
45327,166
45338,165
45349,166
45361,170
45372,166
45384,163
45395,155
45407,156
45418,149
45429,146
45441,148
45453,146
45464,151
45475,156
45487,162
45498,162
45509,167
45521,166
45533,161
45544,166
45555,165
45566,164
45579,165
45590,164
45601,163
45613,159
45624,157
45635,157
45647,164
45659,164
45670,183
45681,177
45692,180
45704,181
45716,193
45727,208
45739,235
45750,246
45761,239
45772,234
45785,273
45796,273
45807,268
45818,278
45830,271
45841,264
45853,256
45864,260
45876,273
45887,253
45898,245
45910,242
45922,245
45933,254
45944,254
45956,247
45967,258
45979,248
45990,242
46002,223
46013,227
46024,235
46035,235
46048,231
46059,223
46070,220
46082,218
46093,208
46104,203
46116,202
46128,209
46139,207
46150,193
46161,184
46173,181
46185,186
46196,181
46208,177
46219,178
46230,167
46241,168
46254,164
46265,159
46276,157
46287,153
46299,152
46311,147
46322,149
46333,146
46345,144
46356,147
46367,148
46380,151
46391,146
46402,150
46413,157
46425,158
46436,160
46448,159
46459,161
46471,152
46482,159
46493,162
46504,159
46517,162
46528,160
46539,157
46551,147
46562,155
46573,155
46585,152
46597,158
46608,160
46619,163
46630,157
46643,166
46654,169
46665,167
46676,169
46688,166
46699,167
46711,164
46723,168
46734,171
46745,172
46756,175
46768,170
46780,175
46791,171
46802,167
46814,174
46825,174
46836,177
46849,169
46860,173
46871,173
46882,174
46894,181
46905,176
46917,176
46928,167
46940,164
46951,163
46962,159
46973,160
46986,170
46997,174
47008,174
47020,175
47031,183
47043,189
47054,191
47066,197
47077,198
47088,192
47099,191
47112,195
47123,195
47134,192
47145,191
47157,182
47168,179
47180,179
47192,182
47203,180
47214,184
47225,183
47237,178
47249,182
47260,179
47271,176
47283,177
47294,184
47305,187
47318,189
47329,187
47340,185
47351,180
47363,176
47374,176
47386,172
47397,171
47409,171
47420,171
47431,173
47443,172
47455,170
47466,165
47477,170
47489,170
47500,170
47512,181
47523,186
47535,191
47546,187
47557,192
47568,194
47581,189
47592,197
47603,197
47614,199
47626,189
47637,194
47649,196
47661,192
47672,194
47683,193
47694,193
47706,185
47718,189
47729,188
47740,183
47752,184
47763,180
47775,178
47787,171
47798,175
47809,179
47820,173
47832,173
47844,166
47855,160
47866,154
47878,157
47889,158
47900,159
47912,165
47924,164
47935,168
47946,160
47958,167
47969,175
47981,172
47992,175
48004,174
48015,173
48026,171
48037,173
48050,180
48061,179
48072,182
48083,178
48095,184
48107,179
48118,181
48130,189
48141,181
48152,199
48163,188
48176,198
48187,205
48198,198
48209,196
48221,196
48232,188
48244,174
48256,176
48267,181
48278,178
48289,182
48301,178
48313,176
48324,178
48335,178
48347,177
48358,174
48369,183
48381,178
48393,183
48404,178
48415,174
48427,175
48438,168
48450,172
48461,164
48473,170
48484,159
48495,167
48507,188
48519,186
48530,188
48541,203
48552,212
48564,215
48576,227
48587,223
48599,219
48610,217
48621,239
48632,251
48645,236
48656,227
48667,254
48678,263
48690,257
48701,238
48713,234
48724,217
48736,203
48747,205
48758,209
48770,210
48782,207
48793,208
48804,195
48816,201
48827,210
48839,201
48850,204
48862,192
48873,184
48884,188
48896,187
48908,184
48919,179
48930,175
48942,168
48953,170
48964,172
48976,170
48988,174
48999,167
49010,169
49021,161
49033,165
49045,164
49056,155
49068,156
49079,154
49090,161
49101,154
49114,157
49125,159
49136,157
49147,161
49159,157
49170,164
49182,155
49193,156
49205,159
49216,159
49227,163
49240,157
49251,157
49262,159
49273,158
49285,160
49296,153
49308,156
49319,154
49331,157
49342,156
49353,155
49364,156
49377,151
49388,143
49399,142
49411,143
49422,145
49433,142
49445,141
49457,139
49468,141
49479,136
49490,142
49502,140
49514,141
49525,142
49537,140
49548,143
49559,138
49571,147
49583,149
49594,147
49605,152
49616,152
49628,156
49640,150
49651,158
49662,159
49674,153
49685,157
49696,153
49709,154
49720,151
49731,156
49742,159
49754,158
49765,156
49777,150
49788,150
49800,147
49811,150
49822,150
49833,149
49846,148
49857,144
49868,147
49880,143
49891,140
49902,144
49914,145
49926,144
49937,148
49948,151
49959,149
49972,153
49983,160
49994,161
50006,163
50017,159
50028,163
50040,156
50052,157
50063,161
50074,157
50085,158
50097,157
50109,157
50120,171
50131,172
50143,169
50154,171
50165,179
50178,176
50189,179
50200,175
50211,176
50223,173
50234,171
50246,163
50257,160
50269,165
50280,172
50291,171
50304,169
50315,162
50326,154
50337,157
50349,155
50360,148
50372,149
50383,148
50395,146
50406,154
50417,150
50428,165
50441,232
50452,245
50463,229
50475,207
50486,198
50497,194
50509,196
50521,203
50532,191
50543,201
50554,188
50566,186
50578,187
50589,174
50600,172
50612,162
50623,159
50634,149
50647,148
50658,145
50669,146
50680,148
50692,149
50704,147
50715,143
50726,140
50738,141
50749,141
50760,143
50772,140
50784,141
50795,137
50806,136
50818,143
50829,141
50841,141
50852,143
50864,143
50875,138
50886,141
50897,147
50910,143
50921,148
50932,145
50944,148
50955,145
50966,148
50978,147
50990,144
51001,149
51012,144
51023,150
51036,145
51047,147
51058,146
51069,144
51081,146
51092,142
51104,146
51116,142
51127,144
51138,147
51149,148
51161,152
51173,148
51184,153
51195,152
51207,154
51218,156
51229,156
51241,160
51253,152
51264,163
51275,161
51287,159
51298,160
51310,159
51321,160
51333,154
51344,165
51355,165
51366,164
51379,173
51390,167
51401,172
51412,171
51424,176
51436,181
51447,177
51459,173
51470,160
51481,161
51492,170
51505,176
51516,183
51527,186
51538,183
51550,179
51561,169
51573,160
51585,155
51596,149
51607,151
51618,146
51630,144
51642,148
51653,144
51664,148
51676,146
51687,147
51698,152
51710,154
51722,151
51733,147
51744,146
51756,140
51767,140
51779,144
51790,142
51802,147
51813,145
51824,148
51836,151
51848,152
51859,151
51870,147
51881,147
51893,151
51905,154
51916,159
51928,157
51939,156
51950,151
51961,145
51974,156
51985,156
51996,154
52007,154
52019,159
52030,158
52042,159
52054,160
52065,159
52076,163
52087,164
52099,163
52111,158
52122,167
52133,166
52145,160
52156,165
52168,174
52179,177
52191,172
52202,179
52213,177
52225,173
52237,176
52248,172
52259,175
52271,169
52282,171
52293,173
52305,173
52317,175
52328,174
52339,174
52350,167
52362,168
52374,172
52385,170
52397,170
52408,162
52419,163
52430,167
52443,163
52454,169
52465,165
52476,167
52488,163
52500,164
52511,159
52523,156
52534,162
52545,166
52556,172
52569,172
52580,174
52591,185
52602,190
52614,195
52625,192
52637,192
52648,213
52660,227
52671,236
52682,256
52694,239
52706,231
52717,227
52728,223
52740,253
52751,266
52762,263
52774,261
52786,253
52797,246
52808,233
52819,222
52831,211
52843,202
52854,198
52866,194
52877,186
52888,192
52900,182
52912,179
52923,188
52934,190
52945,183
52957,171
52969,173
52980,186
52992,209
53003,217
53014,210
53025,204
53038,208
53049,192
53060,182
53071,183
53083,183
53094,175
53106,169
53117,170
53129,163
53140,158
53151,158
53163,155
53175,158
53186,156
53197,153
53209,152
53220,149
53232,151
53243,149
53255,150
53266,142
53277,144
53288,145
53301,143
53312,148
53323,145
53335,154
53346,147
53357,151
53369,155
53381,152
53392,154
53403,155
53414,163
53426,152
53438,157
53449,158
53460,153
53472,159
53483,155
53494,162
53507,157
53518,158
53529,155
53540,151
53552,162
53563,192
53575,213
53586,220
53598,225
53609,209
53620,204
53633,187
53644,177
53655,169
53666,163
53678,159
53689,150
53701,149
53712,151
53724,149
53735,158
53746,169
53757,184
53770,186
53781,204
53792,200
53804,202
53815,195
53826,197
53838,201
53850,193
53861,196
53872,188
53883,185
53895,189
53907,197
53918,202
53929,200
53941,202
53952,200
53964,197
53976,193
53987,197
53998,199
54009,196
54021,195
54033,192
54044,191
54055,196
54067,195
54078,196
54089,191
54102,187
54113,187
54124,184
54135,184
54147,181
54158,186
54170,175
54181,175
54193,171
54204,166
54215,160
54226,156
54239,151
54250,151
54261,146
54273,149
54284,145
54295,148
54307,151
54319,152
54330,160
54341,155
54352,159
54365,156
54376,154
54387,155
54398,158
54410,163
54421,154
54433,158
54445,155
54456,152
54467,152
54478,149
54490,151
54502,146
54513,150
54524,154
54536,154
54547,157
54558,155
54571,156
54582,153
54593,154
54604,160
54616,162
54627,167
54639,162
54650,166
54662,156
54673,163
54684,164
54696,164
54708,171
54719,174
54730,180
54742,176
54753,181
54765,179
54776,175
54788,180
54799,180
54810,179
54821,176
54834,181
54845,180
54856,177
54867,184
54879,182
54890,187
54902,178
54914,172
54925,174
54936,174
54947,182
54959,177
54971,177
54982,174
54993,171
55005,174
55016,176
55027,177
55040,168
55051,175
55062,166
55073,163
55085,166
55097,164
55108,170
55119,163
55131,173
55142,170
55153,167
55165,169
55177,169
55188,179
55199,178
55211,185
55222,186
55234,192
55245,182
55257,183
55268,191
55279,188
55290,201
55303,197
55314,206
55325,215
55336,222
55348,222
55359,217
55371,218
55383,216
55394,215
55405,214
55416,215
55429,211
55440,200
55451,200
55462,191
55474,190
55485,190
55497,180
55508,166
55520,166
55531,169
55542,196
55554,184
55566,197
55577,208
55588,218
55600,224
55611,257
55622,251
55634,257
55646,269
55657,260
55668,265
55680,266
55691,253
55703,254
55714,262
55726,258
55737,247
55748,252
55759,243
55772,250
55783,254
55794,239
55805,234
55817,220
55829,217
55840,207
55852,205
55863,200
55874,199
55885,208
55898,199
55909,194
55920,182
55931,173
55943,176
55954,169
55966,175
55977,164
55989,165
56000,170
56011,166
56023,166
56035,158
56046,164
56057,160
56069,164
56080,164
56091,164
56103,166
56115,160
56126,165
56137,160
56148,156
56161,160
56172,157
56183,154
56195,148
56206,157
56217,154
56229,149
56241,152
56252,148
56263,154
56274,149
56286,154
56298,153
56309,152
56321,157
56332,156
56343,163
56354,157
56367,157
56378,216
56389,269
56400,287
56412,296
56423,294
56435,300
56446,287
56458,273
56469,263
56480,248
56492,236
56504,227
56515,239
56526,239
56538,244
56549,260
56561,252
56572,254
56584,249
56595,246
56606,244
56617,240
56630,246
56641,233
56652,231
56664,214
56675,202
56686,193
56698,184
56710,173
56721,169
56732,163
56743,162
56755,157
56767,158
56778,161
56790,160
56801,163
56812,158
56823,165
56836,159
56847,159
56858,160
56869,156
56881,158
56893,149
56904,152
56915,148
56927,148
56938,150
56949,148
56962,155
56973,150
56984,149
56995,148
57007,147
57018,150
57030,147
57041,155
57053,148
57064,154
57075,155
57086,151
57099,154
57110,150
57121,161
57133,156
57144,162
57155,160
57167,163
57179,170
57190,167
57201,172
57212,164
57224,171
57236,170
57247,168
57259,175
57270,170
57281,177
57293,174
57305,178
57316,179
57327,177
57338,180
57350,169
57362,171
57373,167
57384,169
57396,168
57407,167
57418,167
57431,159
57442,168
57453,166
57464,160
57476,157
57487,157
57499,166
57510,158
57522,162
57533,160
57544,160
57555,162
57568,158
57579,167
57590,156
57602,158
57613,157
57624,152
57636,156
57648,156
57659,158
57670,148
57681,155
57694,150
57705,150
57716,151
57728,148
57739,154
57750,144
57762,148
57774,146
57785,148
57796,150
57807,149
57819,158
57831,159
57842,169
57853,171
57865,178
57876,198
57887,203
57900,215
57911,211
57922,215
57933,209
57945,218
57956,207
57968,201
57979,195
57991,202
58002,202
58013,209
58025,205
58037,224
58048,228
58059,227
58071,237
58082,223
58094,251
58105,233
58117,223
58128,218
58139,215
58150,216
58163,213
58174,207
58185,192
58196,185
58208,187
58219,179
58231,184
58243,172
58254,171
58265,169
58276,171
58288,171
58300,171
58311,177
58322,178
58334,182
58345,177
58357,181
58369,172
58380,177
58391,181
58402,173
58414,177
58426,173
58437,177
58448,167
58460,174
58471,170
58482,173
58494,170
58506,166
58517,165
58528,156
58540,156
58551,154
58563,152
58574,160
58586,154
58597,157
58608,153
58619,148
58632,148
58643,146
58654,149
58665,143
58677,151
58688,148
58700,145
58712,145
58723,146
58734,147
58745,141
58758,147
58769,145
58780,143
58791,145
58803,142
58814,150
58826,145
58838,152
58849,150
58860,146
58871,153
58883,153
58895,156
58906,146
58917,153
58929,150
58940,147
58951,152
58963,153
58975,160
58986,153
58997,157
59009,158
59020,153
59032,157
59043,172
59055,215
59066,258
59077,296
59089,312
59101,318
59112,313
59123,294
59134,288
59146,276
59158,266
59169,251
59181,238
59192,221
59203,205
59214,189
59227,177
59238,168
59249,162
59260,159
59272,156
59283,151
59295,160
59307,159
59318,162
59329,165
59340,164
59352,165
59364,157
59375,161
59386,157
59398,153
59409,153
59420,145
59432,151
59444,144
59455,148
59466,150
59478,152
59490,158
59501,155
59512,159
59524,147
59535,151
59546,151
59558,148
59570,153
59581,154
59592,157
59603,150
59615,156
59627,156
59638,153
59650,159
59661,156
59672,167
59683,160
59696,167
59707,170
59718,168
59729,170
59741,167
59752,175
59764,166
59776,168
59787,168
59798,177
59809,174
59822,169
59833,175
59844,173
59855,178
59867,174
59878,176
59890,171
59901,164
59913,170
59924,169
59935,170
59947,167
59959,167
59970,165
59981,158
59993,163
60004,160
60015,159
60027,160
60039,160
60050,157
60061,153
60072,159
60084,158
60096,163
60107,167
60119,183
60130,176
60141,175
60152,178
60165,172
60176,183
60187,184
60198,190
60210,197
60222,191
60233,198
60244,190
60256,192
60267,183
60278,189
60291,195
60302,185
60313,178
60324,189
60336,196
60347,212
60359,218
60370,227
60382,227
60393,251
60404,280
60416,339
60428,338
60439,318
60450,304
60462,296
60473,291
60484,273
60496,267
60508,278
60519,264
60530,275
60541,270
60553,250
60565,240
60576,224
60588,215
60599,217
60610,211
60622,210
60634,203
60645,199
60656,193
60667,207
60679,188
60691,182
60702,189
60713,187
60725,193
60736,190
60747,195
60760,181
60771,176
60782,176
60793,166
60805,174
60816,173
60828,172
60839,163
60851,167
60862,167
60873,161
60884,161
60897,152
60908,156
60919,148
60931,152
60942,150
60954,148
60965,155
60977,149
60988,156
60999,151
61010,153
61023,156
61034,155
61045,156
61057,150
61068,156
61079,152
61091,154
61103,156
61114,155
61125,163
61136,222
61148,276
61160,316
61171,335
61182,325
61194,318
61205,305
61216,295
61229,271
61240,259
61251,254
61262,241
61274,250
61285,265
61297,268
61308,264
61320,277
61331,313
61342,309
61355,311
61366,305
61377,296
61388,301
61400,302
61411,296
61423,298
61434,301
61446,296
61457,293
61468,294
61479,301
61492,306
61503,302
61514,306
61526,325
61537,335
61548,357
61560,353
61572,350
61583,338
61594,332
61605,322
61617,333
61629,363
61640,355
61651,350
61663,353
61674,346
61686,336
61698,330
61709,341
61720,329
61731,328
61743,309
61755,299
61766,279
61777,269
61789,259
61800,235
61811,223
61824,204
61835,191
61846,185
61857,173
61869,168
61880,161
61892,157
61903,151
61915,146
61926,143
61937,142
61948,144
61961,138
61972,143
61983,140
61995,142
62006,144
62017,146
62029,149
62041,149
62052,154
62063,157
62074,161
62087,170
62098,176
62109,184
62120,186
62132,196
62143,210
62155,223
62167,240
62178,249
62189,263
62200,256
62212,254
62224,262
62235,261
62246,268
62258,264
62269,268
62280,264
62292,263
62304,254
62315,253
62326,264
62338,265
62349,282
62361,274
62372,283
62384,284
62395,300
62406,315
62418,308
62430,316
62441,296
62452,284
62464,277
62475,281
62487,286
62498,278
62510,277
62521,268
62532,261
62543,258
62556,260
62567,270
62578,273
62589,276
62601,275
62612,271
62624,280
62636,290
62647,288
62658,283
62669,279
62681,272
62693,272
62704,273
62715,274
62727,279
62738,275
62750,295
62761,306
62773,315
62784,321
62795,324
62807,325
62819,311
62830,299
62841,288
62853,283
62864,288
62875,279
62887,286
62899,281
62910,279
62921,273
62932,273
62944,287
62956,288
62967,301
62979,319
62990,327
63001,310
63012,308
63025,315
63036,301
63047,308
63058,305
63070,309
63081,297
63093,297
63105,303
63116,293
63127,299
63138,288
63151,287
63162,281
63173,296
63184,291
63196,292
63207,306
63219,296
63230,293
63242,289
63253,292
63264,299
63276,297
63288,299
63299,293
63310,298
63322,294
63333,292
63344,301
63356,298
63368,296
63379,293
63390,290
63401,300
63413,302
63425,305
63436,300
63448,315
63459,330
63470,327
63482,347
63494,339
63505,349
63516,352
63527,343
63539,326
63551,320
63562,326
63574,313
63585,317
63596,304
63607,299
63620,294
63631,299
63642,309
63653,296
63665,303
63676,291
63688,287
63699,285
63711,307
63722,314
63733,309
63745,307
63757,306
63768,308
63779,305
63791,312
63802,318
63813,307
63825,316
63837,336
63848,334
63859,326
63870,331
63883,332
63894,322
63905,319
63917,309
63928,305
63939,299
63951,297
63963,297
63974,290
63985,289
63996,275
64008,276
64020,276
64031,266
64043,271
64054,256
64065,253
64076,237
64089,231
64100,231
64111,218
64122,217
64134,208
64145,205
64157,197
64168,198
64180,200
64191,193
64202,201
64215,196
64226,202
64237,203
64248,222
