0,350
1,349
2,344
4,339
5,334
6,331
7,327
9,327
10,336
11,342
13,339
16,337
24,338
32,344
40,354
49,345
58,361
66,350
74,351
82,359
91,363
99,374
107,348
116,369
126,352
136,361
145,359
154,353
163,361
173,358
182,362
192,364
201,369
210,369
220,380
229,370
238,391
247,369
258,385
267,371
276,380
285,365
294,371
304,374
313,371
323,383
332,378
342,383
351,383
360,387
369,385
378,407
389,398
398,403
407,381
416,396
425,377
435,391
444,379
454,383
463,393
473,386
482,391
491,389
500,396
509,397
520,401
529,396
538,407
547,388
557,408
566,391
575,396
585,380
594,392
604,378
613,381
622,383
631,382
641,392
651,395
660,409
669,408
678,407
688,400
697,411
706,390
715,405
726,386
735,408
744,400
753,409
762,409
772,405
781,412
791,413
800,418
809,419
819,428
828,425
837,434
846,424
857,434
866,419
875,433
884,411
893,424
903,412
912,415
922,414
931,416
941,419
950,420
959,432
968,428
977,434
988,428
997,436
1006,422
1016,430
1027,416
1037,422
1047,415
1058,420
1069,414
1079,415
1089,406
1099,407
1110,398
1121,395
1131,397
1141,395
1152,402
1162,403
1172,407
1183,390
1193,406
1204,389
1214,405
1224,386
1234,396
1245,375
1256,389
1266,377
1276,377
1287,367
1297,367
1307,364
1318,358
1329,358
1339,361
1349,357
1359,357
1370,352
1380,350
1391,349
1401,341
1412,355
1422,342
1432,358
1442,344
1454,367
1464,355
1474,364
1484,351
1495,358
1505,354
1516,354
1526,352
1537,354
1547,350
1557,350
1567,348
1577,349
1589,342
1599,338
1609,339
1619,341
1630,349
1640,343
1651,357
1661,343
1672,352
1682,334
1692,348
1702,334
1713,347
1724,339
1734,353
1744,346
1755,347
1765,346
1775,342
1786,345
1797,340
1807,337
1817,337
1827,331
1838,328
1849,323
1859,318
1869,322
1880,314
1890,314
1900,306
1910,318
1922,306
1932,314
1942,308
1952,327
1963,314
1973,330
1984,322
1994,321
2004,320
2015,316
2025,316
2035,315
2045,315
2057,315
2067,307
2077,300
2087,293
2098,291
2108,298
2119,297
2129,296
2140,281
2150,284
2160,273
2170,295
2182,284
2192,293
2202,284
2212,286
2223,279
2233,280
2243,283
2254,283
2265,289
2275,294
2285,291
2295,291
2306,289
2317,287
2327,290
2337,291
2348,301
2358,299
2368,309
2378,306
2390,311
2400,301
2410,316
2420,304
2430,320
2441,311
2452,323
2462,316
2472,328
2483,320
2493,319
2503,322
2514,317
2525,318
2535,317
2545,316
2555,317
2566,316
2576,314
2587,314
2597,309
2608,326
2618,314
2628,331
2638,315
2650,322
2660,313
2670,321
2680,316
2691,317
2701,316
2711,325
2722,321
2733,324
2743,324
2753,322
2763,326
2774,329
2785,330
2795,331
2805,346
2816,345
2826,353
2836,350
2847,352
2857,342
2868,358
2878,342
2888,360
2898,347
2909,358
2920,347
2930,348
2940,348
2951,343
2961,345
2971,349
2982,343
2993,342
3003,342
3013,338
3023,336
3034,334
3044,338
3055,337
3065,341
3076,336
3086,347
3096,336
3106,343
3118,333
3128,353
3138,339
3148,351
3159,339
3169,351
3180,357
3190,364
3201,358
3211,346
3221,349
3231,339
3241,343
3253,347
3263,340
3273,364
3283,349
3294,337
3304,338
3315,336
3325,350
3336,338
3346,346
3356,334
3366,342
3377,330
3388,339
3398,318
3408,334
3419,329
3429,343
3439,335
3450,328
3461,331
3471,324
3481,325
3491,318
3502,318
3513,313
3523,318
3533,317
3544,316
3554,313
3564,326
3574,307
3586,325
3596,307
3606,321
3616,308
3627,317
3637,311
3648,310
3658,314
3668,319
3679,316
3689,318
3699,318
3709,315
3721,314
3731,306
3741,311
3751,309
3762,315
3772,310
3783,317
3793,309
3804,316
3814,304
3824,321
3834,305
3846,319
3856,311
3866,322
3876,309
3887,309
3897,308
3907,306
3918,311
3929,313
3939,310
3949,319
3959,326
3970,329
3981,335
3991,322
4001,329
4012,334
4022,343
4032,332
4042,362
4054,348
4064,356
4074,342
4084,347
4094,342
4105,349
4116,341
4126,347
4136,339
4147,337
4157,333
4167,330
4178,337
4189,338
4199,343
4209,344
4219,337
4230,330
4240,331
4251,333
4261,344
4272,332
4282,345
4292,327
4302,348
4314,334
4324,345
4334,341
4344,347
4355,340
4365,341
4375,340
4386,346
4397,338
4407,338
4417,334
4427,329
4438,330
4449,329
4459,327
4469,328
4480,339
4490,338
4500,351
4511,342
4521,343
4532,326
4542,337
4552,324
4562,342
4573,331
4584,345
4594,331
4604,343
4615,337
4625,329
4635,335
4646,338
4657,335
4667,330
4677,333
4687,333
4698,329
4708,328
4719,327
4729,325
4740,341
4750,330
4760,341
4770,329
4782,339
4792,325
4802,337
4812,325
4823,340
4833,330
4844,344
4854,335
4865,335
4875,333
4885,329
4895,330
4905,324
4917,327
4927,326
4937,326
4947,329
4958,327
4968,325
4979,335
4989,326
5000,345
5010,331
5020,351
5030,336
5041,358
5052,347
5062,353
5072,353
5083,358
5093,356
5103,356
5114,355
5125,363
5135,361
5145,361
5155,360
5166,354
5177,353
5187,353
5197,350
5208,341
5218,353
5228,341
5238,365
5250,346
5260,367
5270,350
5280,370
5291,358
5301,359
5312,355
5322,359
5332,357
5343,364
5353,357
5363,361
5373,359
5385,352
5395,349
5405,342
5415,343
5426,344
5436,341
5447,337
5457,352
5468,342
5478,353
5488,340
5498,362
5510,351
5520,356
5530,354
5540,366
5551,357
5561,366
5571,359
5582,361
5593,360
5603,365
5613,359
5623,357
5634,355
5645,355
5655,359
5665,357
5676,359
5686,353
5696,362
5706,353
5718,358
5728,349
5738,368
5748,353
5758,375
5769,361
5780,361
5790,356
5800,354
5811,354
5821,354
5831,362
5842,365
5853,368
5863,373
5873,364
5883,360
5894,361
5904,358
5915,363
5925,355
5936,374
5946,364
5956,380
5966,361
5978,376
5988,361
5998,377
6008,368
6019,372
6029,374
6039,382
6050,374
6061,384
6071,378
6081,370
6091,369
6102,369
6113,366
6123,364
6133,367
6144,370
6154,364
6164,359
6175,373
6185,359
6196,372
6206,358
6216,382
6226,375
6237,397
6248,384
6258,380
6268,380
6279,379
6289,377
6299,380
6310,373
6321,373
6331,366
6341,364
6351,362
6362,358
6372,372
6383,372
6393,382
6404,371
6414,381
6424,368
6434,385
6446,368
6456,375
6466,371
6476,383
6487,369
6497,379
6508,373
6518,374
6529,368
6539,370
6549,368
6559,363
6569,365
6581,361
6591,366
6601,371
6611,365
6622,363
6632,367
6643,357
6653,378
6664,364
6674,379
6684,361
6694,386
6705,375
6716,381
6726,372
6736,378
6747,376
6757,375
6767,375
6778,378
6789,374
6799,372
6809,373
6819,369
6830,376
6841,378
6851,374
6861,372
6872,375
6882,368
6892,368
6902,359
6914,377
6924,360
6934,387
6944,375
6955,385
6965,373
6976,375
6986,372
6996,375
7007,378
7017,386
7027,382
7037,379
7049,371
7059,366
7069,363
7079,360
7090,364
7100,362
7111,374
7121,365
7132,369
7142,356
7152,371
7162,353
7174,369
7184,357
7194,367
7204,356
7215,367
7225,355
7235,360
7246,355
7257,353
7267,363
7277,362
7287,363
7298,359
7309,359
7319,355
7329,347
7340,343
7350,343
7360,338
7370,355
7382,338
7392,353
7402,337
7412,349
7422,339
7433,343
7444,339
7454,340
7464,338
7475,348
7485,340
7495,340
7506,339
7517,339
7527,336
7537,325
7547,330
7558,327
7568,337
7579,337
7589,338
7600,331
7610,342
7620,327
7630,342
7642,339
7652,353
7662,336
7672,346
7683,335
7693,330
7703,331
7714,330
7725,332
7735,324
7745,329
7755,322
7766,322
7777,316
7787,323
7797,318
7808,325
7818,322
7828,330
7839,320
7849,328
7860,318
7870,328
7880,314
7890,332
7901,338
7912,333
7922,324
7932,319
7943,308
7953,303
7963,312
7974,318
7985,323
7995,325
8005,359
8015,356
8026,349
8036,348
8047,349
8057,341
8068,346
8078,341
8088,357
8098,345
8110,355
8120,339
8130,351
8140,334
8151,334
8161,332
8172,359
8182,350
8193,351
8203,356
8213,356
8223,349
8233,347
8245,340
8255,338
8265,347
8275,353
8286,352
8296,345
8307,354
8317,341
8328,352
8338,340
8348,353
8358,339
8369,356
8380,339
8390,349
8400,341
8411,340
8421,345
8431,339
8442,339
8453,335
8463,334
8473,341
8483,340
8494,335
8505,335
8515,330
8525,337
8536,328
8546,339
8556,328
8566,335
8578,320
8588,330
8598,325
8608,340
8619,330
8629,342
8640,331
8650,341
8660,337
8671,339
8681,333
8691,331
8701,334
8713,333
8723,337
8733,333
8743,336
8754,335
8764,342
8775,335
8785,338
8796,330
8806,347
8816,329
8826,356
8838,336
8848,359
8858,347
8868,354
8879,346
8889,348
8899,350
8910,349
8921,358
8931,368
8941,367
8951,373
8962,369
8973,368
8983,369
8993,367
9004,378
9014,369
9024,381
9034,368
9046,383
9056,365
9066,381
9076,371
9086,395
9097,375
9108,391
9118,380
9128,382
9139,375
9149,373
9159,367
9170,365
9181,364
9191,367
9201,357
9211,354
9222,349
9232,345
9243,356
9253,348
9264,358
9274,348
9284,360
9294,344
9306,358
9316,339
9326,360
9336,345
9347,354
9357,344
9367,347
9378,343
9389,341
9399,343
9409,343
9419,340
9430,338
9441,332
9451,331
9461,330
9472,327
9482,333
9492,326
9503,342
9513,326
9524,342
9534,325
9544,336
9554,326
9565,338
9576,333
9586,338
9596,334
9607,335
9617,333
9627,334
9638,329
9649,331
9659,324
9669,324
9679,330
9690,330
9700,334
9711,334
9721,343
9732,339
9742,345
9752,338
9762,345
9774,330
9784,344
9794,327
9804,343
9815,336
9825,343
9836,331
9846,329
9857,332
9867,337
9877,336
9887,342
9897,333
9909,330
9919,326
9929,319
9939,318
9950,315
9960,320
9971,318
9981,332
9992,325
10002,325
10013,319
10024,315
10037,309
10048,304
10059,310
10071,309
10082,323
10093,316
10105,310
10117,305
10128,304
10139,304
10150,295
10162,308
10174,295
10185,294
10196,289
10208,283
10219,288
10230,280
10243,291
10254,285
10265,294
10276,286
10288,281
10299,280
10311,271
10322,280
10334,271
10345,269
10356,266
10369,267
10380,276
10391,270
10402,269
10414,262
10425,261
10437,254
10448,253
10460,259
10471,254
10482,257
10493,255
10506,253
10517,252
10528,252
10540,262
10551,257
10562,253
10574,248
10586,250
10597,248
10608,247
10619,256
10631,255
10643,260
10654,252
10665,245
10677,245
10688,243
10700,245
10712,246
10723,254
10734,260
10745,264
10757,259
10769,257
10780,262
10791,263
10803,267
10814,271
10825,270
10838,266
10849,256
10860,263
10871,254
10883,253
10894,253
10906,251
10917,259
10929,256
10940,261
10951,257
10962,255
10975,256
10986,256
10997,270
11009,259
11020,265
11031,264
11043,262
11055,261
11066,264
11077,283
11088,274
11101,281
11112,271
11123,263
11134,266
11146,269
11157,276
11169,267
11181,270
11192,267
11203,260
11214,260
11226,260
11238,264
11249,262
11260,274
11272,276
11283,270
11294,277
11307,281
11318,284
11329,273
11340,255
11352,261
11363,259
11375,263
11386,259
11398,273
11409,266
11420,258
11432,261
11444,261
11455,269
11466,266
11478,270
11489,273
11501,275
11512,270
11524,261
11535,270
11546,270
11557,277
11570,274
11581,273
11592,276
11603,280
11615,296
11626,290
11638,295
11650,297
11661,290
11672,289
11683,282
11695,294
11707,288
11718,295
11729,288
11741,281
11752,287
11763,290
11776,299
11787,294
11798,294
11809,291
11821,285
11833,286
11844,284
11855,299
11867,291
11878,293
11889,296
11901,290
11913,282
11924,278
11935,295
11947,283
11958,289
11970,290
11981,285
11993,285
12004,280
12015,292
12026,298
12039,321
12050,375
12061,380
12072,363
12084,341
12095,327
12107,322
12119,338
12130,336
12141,345
12152,335
12164,330
12176,317
12187,308
12198,301
12210,293
12221,299
12233,298
12244,288
12256,291
12267,293
12278,284
12290,275
12302,269
12313,281
12324,270
12336,277
12347,278
12358,274
12370,272
12382,269
12393,273
12404,263
12416,268
12427,263
12439,251
12450,249
12462,257
12473,265
12484,255
12495,257
12508,262
12519,261
12530,255
12541,256
12553,270
12565,265
12576,270
12588,266
12599,255
12610,266
12621,260
12634,272
12645,273
12656,278
12667,271
12679,264
12690,271
12702,261
12713,264
12725,262
12736,262
12747,257
12759,251
12771,248
12782,240
12793,252
12805,250
12816,255
12827,258
12839,255
12851,260
12862,247
12873,269
12884,277
12896,274
12908,273
12919,271
12931,283
12942,273
12953,272
12965,267
12977,258
12988,253
12999,252
13010,261
13022,254
13034,263
13045,257
13057,250
13068,252
13079,255
13090,262
13103,252
13114,255
13125,255
13136,252
13148,255
13159,256
13171,269
13182,259
13194,261
13205,253
13216,245
13228,248
13240,247
13251,256
13262,249
13274,253
13285,252
13297,246
13308,249
13320,244
13331,257
13342,254
13353,256
13366,254
13377,249
13388,260
13400,251
13411,257
13422,255
13434,258
13446,257
13457,252
13468,261
13479,252
13491,258
13503,254
13514,248
13526,254
13537,261
13548,266
13559,255
13572,258
13583,251
13594,252
13605,250
13617,252
13628,256
13640,247
13651,248
13663,250
13674,250
13685,249
13698,254
13709,266
13720,261
13731,262
13743,258
13754,259
13766,259
13777,256
13789,258
13800,256
13811,254
13822,249
13835,252
13846,259
13857,268
13869,273
13880,262
13891,262
13903,254
13915,250
13926,257
13937,254
13948,266
13960,262
13972,264
13983,260
13995,256
14006,260
14017,251
14029,258
14041,262
14052,268
14063,265
14074,260
14086,261
14098,257
14109,267
14120,265
14132,262
14143,259
14154,263
14167,259
14178,253
14189,259
14200,259
14212,258
14223,261
14235,270
14246,279
14258,270
14269,268
14280,262
14291,261
14304,258
14315,262
14326,266
14338,261
14349,266
14361,259
14372,255
14384,256
14395,258
14406,266
14417,262
14430,272
14441,267
14452,266
14464,260
14475,254
14486,263
14498,256
14510,269
14521,269
14532,268
14543,270
14555,264
14567,269
14578,269
14589,276
14601,276
14612,271
14623,271
14636,261
14647,265
14658,263
14669,267
14681,270
14692,272
14704,274
14715,264
14727,274
14738,263
14749,256
14761,259
14773,264
14784,266
14795,258
14807,265
14818,260
14830,257
14841,256
14853,262
14864,281
14875,279
14886,292
14899,281
14910,282
14921,267
14932,263
14944,266
14955,259
14967,256
14979,255
14990,255
15001,257
15012,256
15024,254
15036,256
15047,261
15058,263
15070,258
15081,258
15093,256
15105,263
15116,254
15127,255
15138,259
15150,261
15162,266
15173,258
15184,262
15196,254
15207,251
15218,248
15230,244
15242,256
15253,252
15264,263
15276,258
15287,257
15299,253
15310,250
15322,263
15333,260
15344,274
15355,267
15368,266
15379,267
15390,263
15401,281
15413,266
15424,272
15436,271
15448,266
15459,263
15470,254
15481,260
15494,252
15505,260
15516,264
15527,269
15539,272
15550,273
15562,279
15574,272
15585,288
15596,286
15607,277
15619,282
15631,278
15642,287
15653,284
15665,292
15676,297
15687,286
15699,288
15711,282
15722,288
15733,281
15745,276
15756,274
15768,270
15779,282
15791,280
15802,284
15813,284
15824,288
15837,291
15848,284
15859,293
15870,288
15882,315
15894,345
15905,341
15917,330
15928,332
15939,331
15950,322
15963,355
15974,357
15985,354
15996,338
16008,326
16019,355
16031,333
16043,344
16054,345
16065,349
16076,335
16088,321
16100,321
16111,320
16122,332
16134,325
16145,317
16156,312
16168,296
16180,297
16191,285
16202,295
16214,297
16226,288
16237,284
16248,292
16260,296
16271,285
16282,298
16294,292
16306,284
16317,274
16328,284
16339,288
16351,281
16363,283
16374,282
16386,288
16397,287
16408,275
16419,278
16432,275
16443,277
16454,276
16465,289
16477,300
16488,285
16500,289
16512,286
16523,289
16534,283
16545,278
16558,283
16569,277
16580,283
16591,277
16603,273
16614,270
16626,273
16637,282
16649,274
16660,281
16671,278
16683,273
16695,274
16706,276
16717,284
16729,272
16740,274
16751,270
16763,265
16775,265
16786,275
16797,280
16808,275
16820,273
16832,270
16843,265
16855,264
16866,259
16877,274
16888,269
16901,277
16912,273
16923,266
16934,262
16946,255
16958,264
16969,263
16980,269
16992,269
17003,260
17014,267
17027,261
17038,269
17049,266
17060,267
17072,272
17083,269
17095,276
17106,263
17118,268
17129,268
17140,268
17152,266
17164,261
17175,265
17186,252
17198,258
17209,262
17220,262
17232,262
17244,259
17255,262
17266,251
17277,260
17290,261
17301,258
17312,258
17324,254
17335,258
17346,246
17358,251
17370,250
17381,250
17392,252
17403,255
17415,259
17427,248
17438,251
17449,251
17461,249
17472,249
17483,250
17496,256
17507,243
17518,243
17529,245
17541,240
17552,244
17564,243
17575,254
17587,247
17598,248
17609,244
17620,239
17633,249
17644,246
17655,259
17667,251
17678,251
17690,249
17701,239
17713,246
17724,241
17735,253
17746,252
17759,255
17770,253
17781,246
17793,253
17804,243
17815,256
17827,256
17839,255
17850,256
17861,250
17872,256
17884,248
17896,265
17907,265
17918,260
17930,261
17941,261
17952,267
17965,259
17976,265
17987,267
17998,266
18010,265
18022,262
18033,270
18044,260
18056,262
18067,261
18078,260
18091,263
18102,263
18113,262
18124,253
18136,255
18147,246
18159,241
18170,246
18182,253
18193,261
18204,255
18215,251
18228,248
18239,246
18250,248
18262,246
18273,257
18284,250
18296,250
18308,240
18319,236
18330,242
18341,242
18353,254
18365,253
18376,256
18387,252
18399,248
18410,255
18422,255
18434,269
18445,269
18456,274
18467,273
18479,281
18491,278
18502,271
18513,272
18525,272
18536,267
18547,266
18560,274
18571,285
18582,278
18593,280
18605,271
18616,269
18628,264
18639,265
18651,269
18662,261
18673,262
18684,255
18697,252
18708,253
18719,258
18731,268
18742,264
18754,271
18765,265
18777,257
18788,256
18799,257
18810,264
18823,262
18834,273
18845,267
18856,264
18868,267
18879,260
18891,259
18903,262
18914,264
18925,264
18936,261
18948,262
18960,254
18971,256
18982,259
18994,267
19005,264
19016,266
19028,264
19040,256
19051,261
19062,263
19074,264
19085,262
19097,265
19108,268
19120,257
19131,263
19142,263
19154,263
19166,262
19177,269
19188,268
19200,264
19211,271
19223,271
19234,275
19246,270
19257,272
19268,266
19279,257
19292,264
19303,262
19314,260
19325,270
19337,279
19348,281
19360,270
19372,268
19383,265
19394,267
19405,277
19417,288
19429,310
19440,308
19451,302
19463,296
19474,284
19486,281
19497,268
19509,263
19520,254
19531,251
19543,251
19555,251
19566,265
19577,266
19589,267
19600,263
19611,265
19623,267
19635,269
19646,279
19657,275
19668,285
19680,276
19692,270
19703,267
19715,275
19726,277
19737,272
19748,286
19761,277
19772,268
19783,267
19794,268
19806,284
19817,277
19829,282
19841,280
19852,275
19863,270
19874,268
19887,274
19898,269
19909,274
19920,273
19932,270
19943,275
19955,284
19966,291
19978,276
19989,272
20000,266
20012,258
20024,260
20035,258
20046,275
20058,271
20069,275
20080,271
20092,270
20104,270
20115,270
20126,279
20137,273
20149,271
20161,263
20172,254
20184,264
20195,263
20206,273
20218,268
20230,272
20241,267
20252,265
20263,265
20275,255
20287,255
20298,257
20310,267
20321,276
20332,283
20343,288
20356,277
20367,284
20378,280
20389,276
20401,266
20412,272
20424,288
20435,276
20447,280
20458,277
20469,282
20481,285
20493,279
20504,284
20515,278
20527,284
20538,279
20549,279
20561,273
20573,272
20584,277
20595,271
20606,271
20619,269
20630,266
20641,279
20653,284
20664,290
20675,287
20687,279
20699,272
20710,263
20721,270
20732,268
20744,277
20756,270
20767,273
20779,269
20790,265
20801,273
20812,272
20825,277
20836,269
20847,258
20858,261
20870,260
20881,257
20893,257
20904,270
20916,274
20927,275
20938,279
20950,285
20962,282
20973,265
20984,281
20996,285
21007,277
21019,272
21030,273
21042,274
21053,261
21064,265
21075,260
21088,254
21099,256
21110,256
21122,270
21133,260
21144,264
21156,256
21168,246
21179,251
21190,254
21201,258
21213,244
21225,245
21236,244
21248,241
21259,251
21270,253
21281,261
21294,256
21305,254
21316,253
21327,245
21339,250
21351,250
21362,249
21373,248
21385,252
21396,249
21407,242
21420,243
21431,239
21442,241
21453,243
21465,242
21476,247
21488,242
21499,249
21511,239
21522,238
21533,236
21544,231
21557,233
21568,233
21579,238
21591,230
21602,234
21613,235
21625,233
21637,236
21648,240
21659,249
21670,244
21683,245
21694,241
21705,237
21716,236
21728,241
21739,248
21751,247
21763,246
21774,241
21785,237
21796,238
21808,240
21820,252
21831,249
21842,255
21854,254
21865,244
21876,242
21889,239
21900,244
21911,240
21922,245
21934,244
21945,239
21957,238
21968,233
21980,237
21991,237
22002,239
22013,239
22026,235
22037,235
22048,231
22060,242
22071,239
22083,242
22094,240
22106,233
22117,236
22128,228
22139,232
22152,234
22163,235
22174,238
22185,236
22197,236
22208,225
22220,231
22232,232
22243,232
22254,231
22265,235
22277,241
22289,233
22300,234
22311,238
22323,238
22334,236
22345,232
22358,237
22369,228
22380,235
22391,234
22403,231
22414,235
22426,240
22437,248
22449,239
22460,243
22471,247
22483,248
22495,247
22506,247
22517,255
22529,251
22540,255
22552,254
22563,258
22575,263
22586,258
22597,254
22608,250
22621,257
22632,254
22643,255
22654,268
22666,271
22677,269
22689,260
22701,256
22712,249
22723,254
22734,262
22746,261
22758,263
22769,257
22780,253
22792,250
22803,256
22815,259
22827,254
22838,265
22849,259
22860,252
22872,245
22884,251
22895,260
22906,259
22918,265
22929,259
22940,256
22952,253
22964,260
22975,259
22986,254
22998,265
23009,255
23021,254
23032,258
23044,266
23055,271
23066,268
23077,266
23090,258
23101,252
23112,252
23123,261
23135,272
23147,267
23158,270
23170,264
23181,267
23192,260
23203,255
23216,259
23227,256
23238,267
23249,266
23261,267
23272,278
23284,278
23296,278
23307,282
23318,286
23329,286
23341,289
23353,301
23364,289
23375,297
23387,292
23398,288
23409,290
23421,300
23433,308
23444,300
23455,297
23467,294
23478,295
23490,292
23501,291
23513,310
23524,302
23535,312
23547,298
23559,291
23570,290
23581,296
23592,299
23604,288
23616,294
23627,290
23639,285
23650,280
23661,284
23672,300
23685,296
23696,305
23707,295
23718,286
23730,298
23741,299
23753,312
23764,303
23776,310
23787,299
23798,292
23810,301
23822,298
23833,311
23844,302
23856,301
23867,286
23879,283
23890,297
23902,293
23913,307
23924,299
23936,294
23948,294
23959,285
23970,288
23982,278
23993,291
24004,286
24016,286
24028,282
24039,275
24050,284
24061,276
24073,288
24085,288
24096,290
24108,286
24119,282
24130,292
24141,281
24154,296
24165,296
24176,287
24187,288
24199,288
24210,288
24222,279
24233,286
24245,287
24256,284
24267,290
24280,292
24291,298
24302,282
24313,285
24325,278
24336,279
24348,285
24359,305
24371,303
24382,288
24393,291
24404,299
24417,289
24428,291
24439,293
24451,291
24462,289
24473,277
24485,277
24497,267
24508,271
24519,276
24530,277
24542,285
24554,294
24565,300
24577,291
24588,303
24599,304
24611,314
24623,324
24634,322
24645,325
24656,326
24668,331
24680,328
24691,323
24702,324
24714,324
24725,321
24736,339
24749,341
24760,332
24771,332
24782,332
24794,334
24805,332
24817,332
24828,336
24840,331
24851,330
24862,339
24873,325
24886,326
24897,342
24908,342
24920,336
24931,330
24942,319
24954,314
24966,316
24977,317
24988,338
24999,328
25012,319
25023,325
25034,307
25046,297
25057,298
25068,299
25080,302
25092,298
25103,295
25114,287
25125,283
25137,282
25149,280
25160,283
25171,286
25183,286
25194,280
25205,290
25218,289
25229,285
25240,293
25251,287
25263,278
25274,270
25286,271
25297,266
25309,273
25320,278
25331,275
25344,270
25355,269
25366,268
25377,257
25389,261
25400,263
25412,258
25423,258
25435,261
25446,263
25457,253
25468,256
25481,254
25492,251
25503,256
25515,260
25526,269
25537,268
25549,262
25561,251
25572,242
25583,250
25594,260
25606,266
25618,266
25629,266
25640,262
25652,250
25663,255
25674,263
25687,270
25698,272
25709,269
25720,267
25732,257
25744,267
25755,268
25766,275
25778,278
25789,279
25800,278
25812,264
25824,268
25835,260
25846,262
25858,264
25869,263
25881,264
25892,258
25904,260
25915,252
25926,252
25937,255
25950,256
25961,255
25972,251
25984,257
25995,248
26006,251
26018,252
26030,246
26041,251
26052,258
26063,259
26075,255
26087,254
26098,249
26109,244
26121,245
26132,256
26144,265
26156,262
26167,263
26178,264
26189,258
26201,255
26213,257
26224,263
26235,267
26247,264
26258,262
26269,254
26281,252
26293,249
26304,253
26315,257
26327,259
26338,257
26350,249
26361,252
26373,249
26384,247
26395,252
26406,253
26419,255
26430,251
26441,254
26452,251
26464,250
26476,256
26487,256
26499,261
26510,262
26521,269
26532,264
26545,264
26556,263
26567,258
26578,254
26590,254
26601,260
26613,258
26625,260
26636,254
26647,243
26658,236
26670,237
26682,233
26693,237
26704,246
26716,241
26727,234
26738,233
26750,231
26762,231
26773,230
26784,232
26796,242
26808,247
26819,238
26830,235
26842,236
26853,238
26864,239
26876,243
26888,239
26899,243
26910,234
26921,231
26933,228
26945,229
26956,229
26968,230
26979,236
26990,237
27001,227
27014,227
27025,229
27036,228
27047,227
27059,239
27070,238
27082,233
27094,228
27105,225
27116,223
27127,224
27139,225
27151,226
27162,224
27173,224
27185,218
27196,219
27208,237
27219,249
27231,244
27242,237
27253,230
27265,229
27277,227
27288,234
27299,235
27311,235
27322,235
27333,228
27345,221
27357,222
27368,223
27379,226
27390,227
27402,232
27414,235
27425,239
27437,239
27448,237
27459,232
27470,230
27483,230
27494,231
27505,228
27516,234
27528,236
27539,234
27551,230
27563,232
27574,234
27585,236
27596,250
27609,246
27620,251
27631,242
27642,243
27654,239
27665,237
27677,237
27688,230
27700,238
27711,245
27722,244
27734,239
27746,239
27757,241
27768,235
27780,231
27791,234
27802,240
27814,238
27826,237
27837,233
27848,229
27859,226
27871,226
27883,225
27894,225
27906,233
27917,234
27928,237
27940,239
27952,231
27963,221
27974,220
27985,225
27997,230
28009,234
28020,239
28032,237
28043,238
28054,232
28065,233
28078,235
28089,232
28100,232
28111,234
28123,233
28134,237
28146,226
28157,219
28169,221
28180,230
28191,231
28203,227
28215,231
28226,232
28237,233
28249,228
28260,225
28272,227
28283,229
28295,235
28306,225
28317,228
28328,221
28341,218
28352,216
28363,219
28375,227
28386,227
28397,228
28409,221
28421,215
28432,210
28443,213
28454,213
28466,216
28478,232
28489,246
28500,268
28512,308
28523,381
28534,470
28547,562
28558,672
28569,699
28580,706
28592,714
28603,729
28615,735
28626,731
28638,746
28649,773
28660,817
28673,848
28684,859
28695,853
28706,860
28718,875
28729,879
28741,891
28752,911
28764,925
28775,949
28786,1011
28798,1023
28812,1023
28824,1023
28836,1023
28849,1023
28861,1023
28874,1023
28887,1023
28899,1023
28911,1023
28923,1023
28936,1023
28949,921
28960,788
28972,690
28983,611
28994,550
29006,503
29018,463
29029,426
29040,389
29051,367
29063,346
29075,333
29086,329
29097,317
29109,311
29120,302
29131,300
29144,288
29155,279
29166,277
29177,270
29189,263
29200,262
29212,262
29223,255
29235,250
29246,239
29257,231
29268,235
29281,231
29292,221
29303,219
29315,211
29326,234
29338,251
29349,273
29361,290
29372,297
29383,309
29394,330
29407,364
29418,405
29429,472
29441,519
29452,562
29463,622
29475,672
29487,704
29498,748
29509,806
29520,821
29532,827
29544,844
29555,833
29566,803
29578,777
29589,765
29600,736
29613,722
29624,705
29635,653
29646,592
29658,524
29670,469
29681,423
29692,387
29704,363
29715,340
29726,331
29739,315
29750,319
29761,306
29772,294
29784,301
29795,296
29807,292
29818,284
29830,291
29841,295
29852,297
29863,296
29876,296
29887,295
29898,291
29910,292
29921,295
29932,296
29944,293
29956,294
29967,316
29978,322
29989,316
30001,324
30013,331
30024,330
30035,312
30047,315
30058,320
30070,313
30082,330
30093,335
30104,331
30115,312
30127,310
30139,311
30150,334
30161,325
30173,318
30184,306
30195,299
30208,304
30219,298
30230,293
30241,301
30253,300
30264,305
30276,298
30287,301
30299,309
30310,302
30321,304
30332,295
30345,302
30356,294
30367,310
30379,307
30390,308
30402,302
30413,294
30425,300
30436,297
30447,300
30458,295
30471,297
30482,293
30493,282
30504,277
30516,296
30527,302
30539,302
30551,297
30562,293
30573,287
30584,281
30596,283
30608,283
30619,286
30630,291
30642,289
30653,284
30664,285
30676,295
30688,307
30699,301
30710,312
30722,315
30733,312
30745,310
30756,321
30768,330
30779,347
30790,348
30802,361
30814,357
30825,377
30836,372
30848,373
30859,380
30871,375
30882,373
30894,361
30905,373
30916,377
30927,376
30940,375
30951,376
30962,371
30973,363
30985,375
30996,372
31008,373
31020,381
31031,378
31042,372
31053,367
31065,383
31077,389
31088,398
31099,402
31111,397
31122,395
31134,393
31145,418
31157,422
31168,432
31179,434
31191,426
31203,418
31214,415
31225,432
31237,430
31248,426
31259,421
31271,407
31283,395
31294,396
31305,404
31316,417
31328,422
31340,418
31351,403
31363,386
31374,374
31385,360
31396,345
31409,331
31420,319
31431,303
31442,297
31454,288
31465,289
31477,292
31489,286
31500,280
31511,270
31522,273
31535,269
31546,266
31557,270
31568,272
31580,275
31591,266
31603,269
31614,260
31626,260
31637,264
31648,259
31660,265
31672,267
31683,278
31694,270
31706,270
31717,271
31728,273
31740,278
31752,285
31763,292
31774,288
31785,294
31797,293
31809,289
31820,295
31832,304
31843,312
31854,307
31866,309
31878,307
31889,304
31900,300
31911,300
31923,307
31935,306
31946,308
31958,302
31969,294
31980,290
31991,286
32004,281
32015,270
32026,271
32037,271
32049,262
32060,265
32072,268
32083,274
32095,280
32106,279
32117,285
32129,288
32141,292
32152,283
32163,285
32175,289
32186,287
32197,286
32209,283
32221,292
32232,282
32243,276
32254,280
32267,278
32278,282
32289,281
32301,287
32312,282
32323,285
32335,276
32347,273
32358,273
32369,284
32380,294
32392,291
32404,288
32415,282
32427,271
32438,270
32449,276
32460,281
32473,279
32484,272
32495,270
32506,264
32518,265
32529,267
32541,271
32552,271
32564,265
32575,257
32586,246
32599,248
32610,249
32621,253
32632,255
32644,256
32655,252
32667,243
32678,248
32690,246
32701,248
32712,247
32723,256
32736,259
32747,254
32758,252
32770,244
32781,244
32792,244
32804,247
32816,250
32827,252
32838,254
32849,240
32861,237
32873,238
32884,237
32896,239
32907,245
32918,254
32929,253
32942,248
32953,241
32964,241
32975,242
32987,247
32999,249
33010,245
33021,245
33033,241
33044,239
33055,239
33068,255
33079,255
33090,253
33101,250
33113,246
33124,242
33136,245
33147,250
33159,254
33170,251
33181,242
33192,236
33205,231
33216,234
33227,235
33239,236
33250,234
33261,235
33273,231
33285,222
33296,225
33307,222
33318,221
33331,227
33342,228
33353,226
33364,224
33376,218
33387,212
33399,217
33411,218
33422,220
33433,229
33444,240
33456,253
33468,242
33479,234
33490,236
33502,227
33513,226
33524,224
33537,224
33548,221
33559,214
33570,211
33582,218
33593,221
33605,230
33616,241
33628,248
33639,257
33650,255
33661,250
33674,252
33685,257
33696,270
33708,273
33719,277
33731,277
33742,267
33754,266
33765,272
33776,284
33787,284
33800,286
33811,285
33822,272
33833,274
33845,276
33856,275
33868,274
33880,273
33891,270
33902,256
33913,258
33925,254
33937,256
33948,261
33959,268
33971,272
33982,268
33993,269
34006,261
34017,256
34028,261
34039,261
34051,263
34062,260
34074,270
34085,264
34097,267
34108,272
34119,272
34131,277
34143,270
34154,273
34165,268
34177,278
34188,273
34200,275
34211,279
34223,277
34234,286
34245,276
34256,271
34269,270
34280,266
34291,268
34302,270
34314,268
34325,263
34337,262
34349,270
34360,272
34371,279
34382,285
34394,283
34406,281
34417,285
34428,286
34440,283
34451,267
34463,294
34475,288
34486,279
34497,271
34508,267
34520,269
34532,280
34543,297
34554,301
34566,303
34577,318
34588,335
34600,314
34612,302
34623,317
34634,314
34646,304
34657,299
34669,302
34680,296
34692,299
34703,291
34714,284
34725,279
34738,269
34749,274
34760,275
34771,283
34783,285
34795,289
34806,288
34818,277
34829,274
34840,279
34851,283
34864,281
34875,280
34886,277
34897,273
34909,263
34920,268
34932,270
34944,267
34955,269
34966,267
34977,259
34989,262
35001,270
35012,277
35023,277
35035,275
35046,275
35057,268
35069,265
35081,267
35092,271
35103,279
35115,287
35126,284
35138,273
35149,278
35161,285
35172,291
35183,295
35195,295
35207,298
35218,291
35229,291
35240,281
35252,284
35264,284
35275,282
35287,275
35298,267
35309,281
35320,281
35333,282
35344,291
35355,283
35366,276
35378,263
35389,265
35401,263
35412,268
35424,271
35435,264
35446,261
35458,257
35470,262
35481,258
35492,260
35504,263
35515,261
35527,258
35538,258
35550,264
35561,265
35572,263
35584,263
35596,257
35607,261
35618,265
35630,269
35641,264
35652,267
35664,266
35676,257
35687,261
35698,266
35709,273
35721,274
35733,275
35744,273
35756,268
35767,275
35778,274
35789,276
35802,279
35813,274
35824,271
35835,268
35847,286
35858,287
35870,282
35881,273
35893,259
35904,246
35915,235
35928,238
35939,232
35950,236
35961,232
35973,229
35984,221
35996,222
36007,225
36019,223
36030,228
36041,236
36052,240
36065,246
36076,251
36087,252
36099,246
36110,246
36121,241
36133,236
36145,237
36156,246
36167,248
36178,242
36190,237
36202,237
36213,235
36225,237
36236,242
36247,245
36259,243
36271,236
36282,230
36293,231
36304,236
36316,240
36328,246
36339,246
36350,244
36362,237
36373,230
36384,240
36397,242
36408,243
36419,245
36430,248
36442,244
36453,236
36465,238
36476,240
36488,244
36499,241
36510,240
36521,243
36534,245
36545,243
36556,234
36568,237
36579,243
36590,241
36602,242
36614,247
36625,258
36636,255
36647,248
36660,255
36671,257
36682,256
36694,256
36705,252
36716,250
36728,250
36740,257
36751,253
36762,249
36773,255
36785,256
36797,255
36808,251
36819,244
36831,238
36842,240
36853,246
36866,247
36877,250
36888,255
36899,243
36911,236
36922,237
36934,243
36945,241
36957,248
36968,258
36979,259
36990,255
37003,261
37014,253
37025,247
37037,246
37048,245
37060,243
37071,237
37083,250
37094,251
37105,248
37116,244
37129,243
37140,243
37151,245
37163,257
37174,253
37185,256
37197,252
37209,242
37220,238
37231,238
37242,245
37254,242
37266,251
37277,249
37288,242
37300,240
37311,241
37322,248
37335,244
37346,253
37357,250
37368,249
37380,243
37392,252
37403,257
37414,259
37426,258
37437,253
37448,248
37460,252
37472,260
37483,263
37494,263
37506,258
37517,247
37529,239
37540,246
37552,251
37563,253
37574,250
37585,257
37598,255
37609,248
37620,246
37632,243
37643,249
37654,249
37666,249
37678,250
37689,247
37700,247
37711,244
37724,253
37735,254
37746,257
37757,250
37769,243
37780,247
37792,238
37804,241
37815,251
37826,253
37837,256
37849,253
37861,246
37872,245
37883,256
37895,256
37906,259
37917,251
37929,247
37941,249
37952,247
37963,251
37975,251
37986,251
37998,253
38009,258
38021,252
38032,253
38043,256
38054,257
38067,254
38078,247
38089,248
38100,246
38112,241
38124,239
38135,243
38147,242
38158,246
38169,247
38180,245
38193,243
38204,243
38215,237
38226,235
38238,250
38249,259
38261,264
38273,260
38284,252
38295,242
38306,237
38318,238
38330,243
38341,255
38352,262
38364,262
38375,259
38386,254
38398,266
38410,262
38421,264
38432,268
38444,266
38456,263
38467,255
38478,264
38490,258
38501,272
38512,272
38524,271
38536,270
38547,265
38558,275
38569,272
38581,280
38593,285
38604,278
38616,279
38627,279
38638,280
38649,271
38662,269
38673,271
38684,268
38695,262
38707,262
38718,277
38730,266
38742,272
38753,271
38764,277
38775,276
38787,284
38799,287
38810,288
38821,295
38833,301
38844,303
38856,301
38867,294
38879,297
38890,288
38901,277
38913,272
38925,268
38936,271
38947,271
38959,274
38970,270
38981,265
38993,266
39005,256
39016,260
39027,264
39038,276
39050,273
39062,270
39073,284
39085,297
39096,312
39107,311
39118,318
39131,323
39142,315
39153,305
39164,321
39176,331
39187,334
39199,343
39211,342
39222,347
39233,336
39244,337
39257,322
39268,311
39279,314
39290,338
39302,340
39313,327
39325,317
39336,313
39348,294
39359,285
39370,285
39382,287
39394,281
39405,296
39416,282
39428,277
39439,274
39450,267
39462,271
39474,276
39485,276
39496,279
39507,277
39519,277
39531,271
39542,262
39554,275
39565,278
39576,284
39588,287
39600,281
39611,272
39622,267
39633,273
39645,271
39657,280
39668,276
39680,274
39691,272
39702,259
39713,261
39726,263
39737,269
39748,273
39759,269
39771,259
39782,258
39794,261
39805,258
39817,259
39828,261
39839,261
39851,258
39863,261
39874,266
39885,259
39897,261
39908,260
39920,261
39931,268
39943,270
39954,272
39965,263
39976,261
39989,264
40000,265
40011,272
40023,277
40034,278
40045,273
40057,269
40069,269
40080,260
40091,266
40102,264
40114,265
40126,260
40137,260
40148,266
40160,258
40171,266
40182,262
40195,265
40206,262
40217,263
40228,266
40240,260
40251,271
40263,266
40274,264
40286,266
40297,263
40308,261
40321,262
40332,273
40343,267
40354,275
40366,273
40377,267
40389,262
40400,259
40412,264
40423,262
40434,269
40445,270
40458,267
40469,263
40480,262
40492,267
40503,261
40514,262
40526,268
40538,269
40549,268
40560,266
40571,272
40583,268
40595,269
40606,266
40617,259
40629,266
40640,270
40652,275
40664,270
40675,268
40686,262
40697,255
40709,263
40721,268
40732,278
40743,275
40755,272
40766,268
40777,259
40790,266
40801,265
40812,270
40823,269
40835,266
40846,264
40858,255
40869,259
40881,254
40892,245
40903,246
40914,262
40927,263
40938,258
40949,253
40961,248
40972,257
40983,261
40995,258
41007,259
41018,259
41029,260
41040,251
41053,249
41064,248
41075,244
41086,239
41098,239
41109,235
41121,232
41133,234
41144,234
41155,239
41166,238
41178,242
41190,234
41201,228
41212,229
41224,230
41235,226
41246,233
41259,242
41270,252
41281,249
41292,252
41304,249
41315,246
41327,250
41338,247
41350,251
41361,252
41372,252
41383,246
41396,232
41407,236
41418,237
41430,242
41441,238
41453,240
41464,237
41476,233
41487,243
41498,236
41509,241
41522,247
41533,249
41544,248
41555,242
41567,243
41578,237
41590,238
41602,239
41613,237
41624,237
41635,241
41647,239
41659,230
41670,235
41681,233
41693,229
41704,230
41715,244
41728,254
41739,252
41750,247
41761,242
41773,236
41785,235
41796,237
41807,240
41819,241
41830,247
41841,245
41853,239
41865,252
41876,259
41887,259
41899,252
41910,257
41922,254
41933,252
41945,246
41956,243
41967,248
41978,245
41991,238
42002,233
42013,226
42024,228
42036,227
42047,235
42059,234
42071,244
42082,241
42093,239
42104,250
42117,246
42128,241
42139,244
42150,245
42162,246
42173,242
42185,239
42196,238
42208,244
42219,244
42230,242
42242,240
42254,239
42265,238
42276,232
42288,240
42299,240
42310,239
42322,241
42334,239
42345,231
42356,230
42368,228
42379,233
42391,236
42402,234
42414,243
42425,243
42436,240
42447,239
42460,241
42471,244
42482,246
42493,244
42505,239
42517,237
42528,239
42540,238
42551,236
42562,249
42573,250
42586,252
42597,257
42608,261
42619,273
42631,268
42642,280
42654,280
42665,282
42677,287
42688,290
42699,287
42711,281
42723,294
42734,292
42745,290
42757,292
42768,286
42779,295
42791,294
42803,305
42814,303
42825,300
42836,296
42849,286
42860,295
42871,292
42883,305
42894,291
42905,303
42917,296
42929,281
42940,275
42951,269
42962,280
42974,292
42986,295
42997,288
43009,274
43020,276
43031,272
43042,284
43055,281
43066,277
43077,281
43088,273
43100,274
43111,292
43123,302
43134,303
43146,298
43157,293
43168,289
43180,284
43192,283
43203,286
43214,279
43226,272
43237,271
43249,260
43260,268
43272,272
43283,280
43294,280
43305,272
43318,269
43329,266
43340,272
43352,272
43363,284
43374,280
43386,282
43398,309
43409,333
43420,335
43431,353
43443,388
43455,393
43466,383
43478,383
43489,392
43500,381
43511,421
43524,415
43535,391
43546,420
43557,394
43569,389
43581,380
43592,375
43603,356
43615,347
43626,346
43637,345
43650,332
43661,333
43672,329
43683,323
43695,317
43706,305
43718,297
43729,291
43741,296
43752,290
43763,286
43774,279
43787,270
43798,275
43809,271
43821,272
43832,272
43843,273
43855,282
43867,269
43878,274
43889,270
43900,268
43912,279
43924,274
43935,278
43947,266
43958,268
43969,260
43981,262
43993,267
44004,268
44015,259
44026,256
44038,261
44050,259
44061,258
44072,256
44084,254
44095,253
44106,252
44119,275
44130,275
44141,288
44152,285
44164,281
44175,285
44187,289
44198,296
44210,290
44221,290
44232,289
44243,281
44256,272
44267,273
44278,278
44290,275
44301,266
44312,269
44324,261
44336,259
44347,262
44358,273
44369,273
44382,283
44393,278
44404,272
44416,269
44427,261
44438,258
44450,259
44462,267
44473,268
44484,263
44495,282
44507,280
44519,281
44530,273
44541,263
44553,261
44564,252
44575,256
44588,256
44599,266
44610,268
44621,265
44633,262
44644,262
44656,274
44667,270
44679,267
44690,262
44701,257
44713,255
44725,248
44736,256
44747,254
44759,260
44770,259
44782,255
44793,251
44805,250
44816,253
44827,251
44838,254
44851,260
44862,257
44873,258
44884,253
44896,255
44907,251
44919,255
44931,259
44942,253
44953,256
44964,255
44976,255
44988,254
44999,257
45010,262
45022,259
45033,266
45045,267
45057,269
45068,267
45079,262
45090,260
45102,256
45114,268
45125,266
45136,267
45148,263
45159,260
45170,255
45182,243
45194,253
45205,254
45216,258
45228,259
45239,256
45251,262
45262,256
45274,261
45285,257
45296,265
45307,269
45320,262
45331,259
45342,249
45353,245
45365,229
45376,234
45388,243
45400,250
45411,254
45422,256
45433,260
45446,258
45457,259
45468,256
45479,250
45491,259
45502,261
45514,264
45526,259
45537,262
45548,255
45559,247
45571,252
45583,255
45594,259
45605,255
45617,249
45628,245
45639,235
45651,232
45663,237
45674,250
45685,250
45697,249
45708,242
45720,235
45731,244
45743,247
45754,249
45765,245
45777,250
45789,249
45800,248
45811,258
45822,255
45834,261
45846,256
45857,247
45869,247
45880,248
45891,255
45902,255
45915,256
45926,257
45937,255
45948,250
45960,244
45971,244
45983,243
45995,260
46006,261
46017,259
46028,255
46040,255
46052,252
46063,254
46074,259
46086,261
46097,256
46108,259
46120,262
46132,260
46143,253
46154,259
46166,267
46178,266
46189,267
46200,265
46212,264
46223,258
46234,255
46246,256
46258,257
46269,264
46280,266
46291,263
46303,261
46315,261
46326,258
46338,253
46349,260
46360,264
46371,268
46384,266
46395,263
46406,258
46417,253
46429,256
46440,255
46452,262
46464,265
46475,262
46486,255
46497,253
46510,259
46521,253
46532,257
46543,258
46555,256
46566,260
46578,257
46589,263
46601,264
46612,275
46623,278
46635,278
46647,275
46658,273
46669,280
46681,278
46692,285
46703,286
46715,281
46727,280
46738,287
46749,293
46760,294
46772,293
46784,298
46795,294
46807,295
46818,294
46829,304
46840,297
46853,295
46864,289
46875,283
46886,279
46898,278
46910,273
46921,271
46932,278
46944,280
46955,273
46966,276
46979,275
46990,286
47001,285
47012,282
47024,281
47035,273
47047,276
47058,271
47070,273
47081,281
47092,274
47104,265
47116,266
47127,265
47138,258
47150,255
47161,252
47172,249
47184,254
47196,250
47207,262
47218,257
47229,260
47242,259
47253,260
47264,264
47276,269
47287,273
47298,268
47310,266
47322,266
47333,262
47344,265
47355,272
47367,282
47379,275
47390,275
47401,290
47413,289
47424,281
47435,297
47448,293
47459,294
47470,300
47481,278
47493,262
47504,259
47516,255
47527,263
47539,274
47550,289
47561,286
47572,279
47585,279
47596,281
47607,286
47619,279
47630,279
47642,281
47653,272
47665,278
47676,272
47687,273
47698,281
47711,278
47722,280
47733,271
47745,275
47756,262
47767,262
47779,266
47791,264
47802,267
47813,262
47824,260
47836,264
47848,274
47859,278
47870,271
47882,271
47893,267
47904,279
47917,274
47928,267
47939,265
47950,261
47962,259
47974,256
47985,266
47996,259
48008,256
48019,256
48030,251
48043,250
48054,251
48065,255
48076,254
48088,254
48099,253
48111,246
48122,247
48134,252
48145,257
48156,257
48167,253
48180,252
48191,241
48202,252
48214,256
48225,264
48236,262
48248,259
48260,256
48271,250
48282,255
48293,253
48305,262
48317,264
48328,261
48339,266
48351,258
48362,264
48374,256
48386,256
48397,261
48408,266
48419,270
48431,262
48443,270
48454,260
48465,260
48477,256
48488,245
48499,251
48512,256
48523,266
48534,263
48545,265
48557,262
48568,255
48580,254
48591,259
48603,268
48614,268
48625,270
48636,270
48649,266
48660,270
48671,272
48683,281
48694,280
48706,281
48717,276
48729,264
48740,265
48751,266
48762,263
48775,253
48786,246
48797,238
48808,229
48820,236
48831,238
48843,252
48855,255
48866,255
48877,251
48888,243
48900,246
48912,247
48923,254
48934,257
48946,261
48957,262
48968,255
48980,252
48992,247
49003,250
49014,247
49026,245
49037,240
49049,236
49060,233
49072,232
49083,238
49094,243
49106,246
49118,242
49129,245
49140,247
49152,239
49163,243
49175,252
49186,246
49198,240
49209,246
49220,246
49231,239
49244,240
49255,243
49266,241
49277,244
49289,245
49300,251
49312,246
49324,242
49335,241
49346,244
49357,251
49369,247
49381,248
49392,250
49403,260
49415,256
49426,248
49438,247
49449,246
49461,253
49472,255
49483,253
49495,254
49507,245
49518,244
49529,241
49541,250
49552,262
49563,273
49575,270
49587,263
49598,268
49609,261
49620,262
49632,268
49644,270
49655,272
49667,265
49678,269
49689,264
49700,263
49713,268
49724,272
49735,276
49746,274
49758,274
49769,271
49781,276
49793,278
49804,274
49815,272
49826,274
49839,274
49850,272
49861,277
49872,277
49884,272
49895,268
49907,263
49918,265
49930,265
49941,261
49952,268
49964,268
49976,267
49987,267
49998,268
50010,273
50021,279
50032,284
50044,277
50056,281
50067,277
50078,279
50089,282
50101,284
50113,288
50124,287
50136,296
50147,283
50158,285
50170,289
50182,288
50193,288
50204,282
50215,292
50227,279
50239,276
50250,276
50262,276
50273,284
50284,280
50295,293
50308,294
50319,294
50330,285
50341,275
50353,272
50364,277
50376,291
50387,295
50399,295
50410,295
50421,285
50433,290
50445,287
50456,287
50467,280
50479,282
50490,275
50501,268
50513,271
50525,273
50536,277
50547,273
50558,269
50571,263
50582,262
50593,263
50605,269
50616,272
50627,274
50639,271
50651,267
50662,260
50673,270
50684,273
50696,287
50708,290
50719,278
50731,269
50742,255
50753,270
50764,273
50777,275
50788,291
50799,290
50810,292
50822,293
50833,299
50845,298
50856,321
50868,321
50879,315
50890,306
50902,301
50914,300
50925,303
50936,300
50948,289
50959,281
50971,280
50982,277
50994,287
51005,282
51016,290
51027,291
51040,277
51051,272
51062,262
51074,264
51085,261
51096,262
51108,259
51120,257
51131,258
51142,261
51153,268
51165,260
51177,259
51188,257
51200,247
51211,247
51222,244
51233,242
51246,249
51257,260
51268,264
51279,260
51291,258
51303,255
51314,263
51325,255
51337,262
51348,263
51359,276
51372,280
51383,272
51394,285
51405,307
51417,295
51428,296
51440,301
51451,293
51463,279
51474,280
51485,279
51496,277
51509,276
51520,270
51531,292
51543,286
51554,292
51565,311
51577,317
51589,333
51600,333
51611,314
51622,341
51635,331
51646,342
51657,349
51668,354
51680,368
51691,358
51703,369
51715,360
51726,352
51737,331
51748,326
51760,321
51772,341
51783,330
51794,315
51806,307
51817,303
51828,297
51841,312
51852,306
51863,304
51874,312
51886,310
51897,302
51909,307
51920,295
51932,285
51943,275
51954,268
51965,262
51978,253
51989,257
52000,249
52012,261
52023,254
52035,246
52046,245
52058,241
52069,250
52080,249
52091,260
52104,248
52115,248
52126,240
52137,249
52149,251
52160,241
52172,244
52184,239
52195,244
52206,252
52217,253
52229,259
52241,256
52252,263
52263,252
52275,249
52286,252
52297,257
52310,260
52321,250
52332,255
52343,266
52355,267
52366,267
52378,265
52389,265
52401,273
52412,278
52423,272
52435,263
52447,264
52458,266
52469,268
52481,263
52492,261
52504,266
52515,263
52527,259
52538,255
52549,271
52560,290
52573,309
52584,304
52595,289
52606,293
52618,295
52629,299
52641,314
52653,323
52664,336
52675,318
52686,322
52698,296
52710,283
52721,284
52732,325
52744,324
52755,320
52767,325
52779,313
52790,317
52801,314
52812,296
52824,293
52836,296
52847,292
52858,280
52870,276
52881,275
52892,270
52904,262
52916,256
52927,262
52938,252
52950,251
52961,252
52973,256
52984,254
52996,257
53007,256
53018,271
53029,268
53042,267
53053,262
53064,287
53075,286
53087,287
53099,281
53110,284
53122,284
53133,275
53144,278
53155,275
53168,287
53179,284
53190,287
53201,283
53213,291
53224,292
53236,283
53248,281
53259,275
53270,269
53281,262
53293,250
53305,260
53316,258
53327,270
53339,276
53350,269
53361,272
53373,269
53385,277
53396,277
53407,281
53419,289
53430,291
53442,290
53453,280
53465,281
53476,270
53487,272
53499,273
53511,265
53522,264
53533,268
53544,271
53556,268
53568,269
53579,278
53591,279
53602,278
53613,284
53624,286
53637,276
53648,271
53659,267
53670,260
53682,262
53693,269
53705,276
53716,271
53728,270
53739,267
53750,257
53762,267
53774,275
53785,281
53796,283
53808,280
53819,279
53830,265
53842,274
53854,275
53865,280
53876,281
53888,277
53900,273
53911,268
53922,271
53934,261
53945,264
53956,269
53968,269
53980,275
53991,270
54002,273
54013,269
54025,272
54037,275
54048,269
54060,271
54071,265
54082,272
54093,264
54106,264
54117,261
54128,255
54139,257
54151,257
54162,267
54174,263
54185,264
54197,260
54208,250
54219,251
54232,260
54243,269
54254,262
54265,263
54277,259
54288,255
54300,250
54311,252
54323,257
54334,262
54345,263
54356,260
54369,251
54380,262
54391,260
54403,250
54414,253
54425,264
54437,273
54449,273
54460,277
54471,278
54482,275
54494,270
54506,264
54517,265
54529,256
54540,262
54551,258
54562,276
54575,278
54586,270
54597,273
54608,276
54620,284
54632,283
54643,302
54654,298
54666,282
54677,282
54688,276
54701,283
54712,270
54723,272
54734,273
54746,250
54757,246
54769,264
54780,260
54792,302
54803,290
54814,290
54825,281
54838,267
54849,259
54860,260
54872,259
54883,252
54894,256
54906,242
54918,239
54929,248
54940,253
54951,249
54964,252
54975,250
54986,242
54998,248
55009,243
55020,244
55032,243
55044,246
55055,247
55066,247
55077,252
55089,248
55101,247
55112,254
55123,258
55135,254
55146,252
55157,265
55170,259
55181,254
55192,249
55203,258
55215,257
55226,252
55238,262
55249,250
55261,246
55272,250
55283,250
55296,252
55307,248
55318,259
55329,254
55341,262
55352,261
55364,257
55375,257
55387,258
55398,263
55409,257
55420,252
55433,256
55444,254
55455,255
55467,275
55478,284
55489,275
55501,272
55513,267
55524,266
55535,261
55546,272
55558,277
55570,274
55581,270
55592,282
55604,285
55615,286
55626,291
55639,290
55650,279
55661,281
55672,281
55684,273
55696,344
55707,332
55718,319
55730,312
55741,300
55752,288
55764,285
55776,279
55787,279
55798,281
55810,271
55821,265
55833,261
55844,264
55856,269
55867,259
55878,263
55889,263
55902,253
55913,249
55924,246
55936,244
55947,240
55958,247
55970,248
55982,246
55993,251
56004,251
56015,250
56027,243
56039,245
56050,248
56061,245
56073,251
56084,261
56096,262
56108,254
56119,249
56130,261
56141,249
56153,250
56165,240
56176,247
56187,264
56199,271
56210,270
56221,265
56233,255
56245,253
56256,254
56267,247
56279,238
56290,232
56302,231
56313,229
56325,228
56336,224
56347,217
56358,217
56371,214
56382,214
56393,224
56404,229
56416,234
56428,237
56439,238
56451,227
56462,219
56473,215
56484,210
56497,214
56508,211
56519,212
56530,232
56542,270
56553,325
56565,339
56577,369
56588,377
56599,384
56610,392
56622,411
56634,420
56645,423
56656,432
56668,427
56679,426
56690,432
56702,434
56714,441
56725,456
56736,477
56748,479
56760,478
56771,482
56782,476
56794,469
56805,467
56816,477
56828,477
56840,477
56851,495
56862,489
56873,489
56885,507
56897,512
56908,521
56920,541
56931,569
56942,579
56953,650
56966,736
56977,789
56988,815
56999,852
57011,880
57022,872
57034,872
57046,861
57057,844
57068,824
57079,805
57091,784
57103,747
57114,740
57125,721
57137,719
57148,730
57160,726
57171,713
57183,696
57194,698
57205,679
57217,678
57229,681
57240,682
57251,671
57263,672
57274,694
57285,688
57297,689
57309,696
57320,698
57331,700
57342,708
57354,719
57366,693
57377,673
57389,661
57400,629
57411,608
57422,599
57435,592
57446,579
57457,566
57468,560
57480,535
57492,523
57503,524
57515,517
57526,509
57537,506
57548,510
57561,495
57572,495
57583,499
57594,537
57606,562
57617,556
57629,542
57640,522
57652,514
57663,518
57674,503
57686,490
57698,490
57709,484
57720,470
57732,480
57743,484
57754,479
57766,473
57778,473
57789,472
57800,460
57811,473
57823,473
57835,464
57846,465
57858,467
57869,466
57880,468
57892,477
57904,471
57915,469
57926,469
57937,459
57949,450
57961,460
57972,483
57984,486
57995,539
58006,586
58017,616
58030,635
58041,669
58052,692
58063,723
58075,778
58086,857
58098,860
58109,873
58121,875
58132,863
58143,843
58155,840
58167,843
58178,825
58189,797
58201,776
58212,728
58223,699
58235,673
58247,639
58258,612
58269,606
58280,605
58293,594
58304,594
58315,608
58327,607
58338,607
58349,637
58361,661
58373,667
58384,657
58395,653
58406,619
58418,584
58430,570
58441,545
58452,522
58464,503
58475,489
58486,468
58499,455
58510,454
58521,449
58532,471
58544,483
58555,476
58567,462
58578,451
58590,444
58601,432
58612,421
58625,420
58636,412
58647,400
58658,396
58670,385
58681,378
58693,373
58704,368
58716,364
58727,357
58738,375
58749,389
58762,387
58773,386
58784,386
58796,379
58807,375
58818,380
58830,368
58842,362
58853,357
58864,364
58875,358
58887,353
58899,351
58910,346
58921,341
58933,340
58944,337
58956,335
58968,336
58979,335
58990,332
59001,333
59013,336
59025,332
59036,324
59047,334
59059,333
59070,324
59081,322
59094,326
59105,322
59116,321
59127,327
59139,326
59150,323
59162,331
59173,334
59185,326
59196,330
59207,325
59218,323
59231,320
59242,314
59253,311
59265,299
59276,287
59287,277
59299,264
59311,258
59322,269
59333,272
59344,288
59357,283
59368,289
59379,281
59390,274
59402,281
59413,288
59425,303
59437,293
59448,300
59459,295
59470,289
59482,329
59494,328
59505,332
59516,349
59528,356
59539,381
59550,417
59563,461
59574,470
59585,479
59596,483
59608,500
59619,495
59631,520
59642,534
59654,580
59665,572
59676,578
59688,588
59700,578
59711,597
59722,629
59734,618
59745,639
59757,599
59768,603
59780,606
59791,596
59802,590
59813,554
59826,536
59837,564
59848,550
59859,539
59871,533
59882,545
59894,577
59906,588
59917,594
59928,564
59939,568
59951,572
59963,569
59974,555
59985,545
59997,550
60008,529
60019,526
60032,515
60043,541
60054,572
60065,583
60077,602
60089,586
60100,591
60111,616
60123,613
60134,610
60145,569
60157,573
60169,529
60180,558
60191,567
60203,568
60214,538
60226,514
60237,548
60249,551
60260,570
60271,586
60282,586
60295,589
60306,574
60317,590
60328,588
60340,589
60351,592
60363,571
60375,543
60386,572
60397,524
60408,519
60421,535
60432,515
60443,508
60454,502
60466,499
60477,552
60489,537
60500,513
60512,527
60523,514
60534,480
60546,472
60558,483
60569,512
60580,481
60592,494
60603,513
60614,488
60626,467
60638,460
60649,451
60660,467
60672,469
60683,489
60695,461
60706,446
60718,443
60729,474
60740,442
60751,449
60764,450
60775,461
60786,457
60797,450
60809,421
60821,397
60832,391
60844,373
60855,369
60866,365
60877,359
60890,347
60901,343
60912,330
60923,323
60935,315
60946,306
60958,306
60969,296
60981,292
60992,291
61003,279
61015,279
61027,278
61038,287
61049,285
61061,291
61072,287
61083,275
61095,278
61107,285
61118,294
61129,289
61140,283
61152,276
61164,271
61175,273
61187,281
61198,290
61209,292
61221,289
61233,294
61244,279
61255,280
61266,285
61278,288
61290,296
61301,292
61313,304
61324,297
61335,295
61346,289
61359,285
61370,287
61381,282
61392,278
61404,274
61415,277
61427,273
61438,276
61450,284
61461,283
61472,280
61484,275
61496,277
61507,266
61518,269
61530,267
61541,260
61553,262
61564,261
61576,267
61587,263
61598,265
61609,264
61622,258
61633,262
61644,267
61656,275
61667,268
61678,265
61690,261
61702,255
61713,255
61724,256
61735,261
61747,265
61759,263
61770,262
61782,258
61793,274
61804,280
61815,283
61828,278
61839,270
61850,263
61861,256
61873,261
61885,262
61896,270
61907,272
61919,270
61930,267
61941,260
61954,274
61965,269
61976,281
61987,280
61999,275
62010,269
62022,261
62033,271
62045,268
62056,272
62067,272
62078,268
62091,263
62102,255
62113,262
62125,258
62136,259
62147,258
62159,265
62171,263
62182,256
62193,280
62204,280
62216,289
62228,304
62239,323
62251,342
62262,389
62273,439
62285,489
62297,463
62308,500
62319,513
62330,549
62342,606
62354,578
62365,613
62376,597
62388,574
62399,556
62410,543
62423,531
62434,518
62445,569
62456,595
62468,576
62479,608
62491,592
62502,624
62514,652
62525,645
62536,626
62547,633
62560,617
62571,637
62582,620
62594,597
62605,613
62617,589
62628,578
62640,647
62651,683
62662,666
62673,609
62686,602
62697,586
62708,598
62720,617
62731,611
62742,638
62754,625
62766,602
62777,591
62788,560
62799,569
62811,549
62823,533
62834,545
62845,509
62857,544
62868,547
62879,559
62892,520
62903,498
62914,521
62925,519
62937,530
62948,527
62960,542
62971,564
62983,550
62994,534
63005,511
63017,495
63029,475
63040,494
63051,528
63063,535
63074,523
63086,502
63097,498
63109,484
63120,487
63131,502
63142,473
63155,489
63166,497
63177,470
63188,456
63200,468
63211,463
63223,491
63235,482
63246,453
63257,431
63268,410
63280,395
63292,389
63303,368
63314,369
63326,352
63337,337
63349,336
63361,323
63372,313
63383,302
63394,288
63406,283
63418,277
63429,291
63440,285
63452,281
63463,282
63474,275
63486,272
63498,275
63509,284
63520,284
63532,282
63543,281
63555,272
63566,274
63578,274
63589,275
63600,273
63611,271
63624,266
63635,257
63646,261
63657,260
63669,271
63680,274
63692,270
63704,267
63715,263
63726,265
63737,260
63750,263
63761,271
63772,273
63783,280
63795,281
63806,284
63818,283
63830,279
63841,277
63852,273
63863,271
63875,265
63887,274
63898,268
63909,268
63921,272
63932,277
63943,283
63955,280
63967,283
63978,274
63989,276
64001,274
64012,265
64024,263
64035,264
64047,277
64058,274
64069,271
64080,269
64093,267
64104,265
64115,266
64126,273
64138,273
64150,279
64161,276
64173,264
64184,270
64195,269
64206,278
64219,276
64230,274
64241,270
64252,261
64264,259
64275,267
64287,280
64299,286
64310,284
64321,278
64332,268
64344,271
64356,268
64367,275
64378,280
64390,280
64401,276
64412,266
64424,264
64436,257
64447,260
64458,268
64470,263
64482,263
64493,256
64504,263
64516,253
64527,260
64538,262
64550,259
64562,259
64573,261
64584,271
64595,263
64607,265
64619,262
64630,253
64642,250
64653,248
64664,260
64675,255
64688,260
64699,262
64710,259
64721,257
64733,256
64744,260
64756,259
64768,258
64779,255
64790,250
64801,246
64813,248
64825,250
64836,252
64847,254
64859,256
64870,250
64882,249
64893,250
64905,250
64916,257
64927,264
64939,271
64951,262
64962,258
64973,255
64985,252
64996,252
65007,248
65019,251
65031,247
65042,254
65053,243
65064,244
65076,245
65088,245
65099,248
65111,247
65122,263
65133,259
65144,255
65157,255
65168,247
65179,245
65190,244
65202,257
65214,256
65225,260
65236,259
65248,253
65259,249
65270,245
65283,252
65294,247
65305,251
65316,274
65328,296
65339,312
65351,321
65362,345
65374,360
65385,374
65396,431
65408,506
65420,617
65431,690
65442,775
65454,853
65465,941
65476,954
65488,963
65500,993
65511,979
65522,976
65533,990
65546,995
65557,1023
65569,1023
65582,1023
65594,1023
65606,1023
65619,1023
65632,1023
65644,1023
65656,1023
65669,1023
65682,1023
65694,1023
65707,1023
65719,1023
65731,1023
65743,1023
65757,1023
65769,1023
65781,1023
65794,1023
65806,1023
65819,1023
65831,1023
65844,1023
65856,1023
65868,1023
65882,1023
65894,1023
65906,1023
65918,1023
65931,1023
65943,1023
65956,1023
65969,1023
65981,1023
65993,1023
66006,1023
66019,1023
66031,1023
66043,1023
66056,1023
66068,1023
66081,1023
66094,1023
66106,1023
66118,1023
66130,1023
66143,1023
66156,1023
66168,1023
66181,1023
66193,1023
66205,1023
66219,1023
66231,1023
66243,1023
66255,1023
66268,1023
66281,1023
66293,1023
66306,1023
66318,1023
66330,1023
66342,1023
66356,1023
66368,1023
66380,1023
66393,1022
66405,1009
66418,986
66429,961
66441,981
66452,978
66463,964
66475,947
66487,885
66498,807
66509,729
66521,645
66532,565
66544,499
66555,460
66567,446
66578,432
66589,418
66600,402
66613,379
66624,356
66635,335
66647,327
66658,321
66669,313
66681,305
66693,291
66704,288
66715,276
66726,272
66738,271
66750,273
66761,278
66772,274
66784,271
66795,272
66806,281
66819,277
66830,272
66841,268
66852,264
66864,254
66875,264
66887,260
66898,262
66910,265
66921,262
66932,260
66945,259
66956,272
66967,269
66978,271
66990,268
67001,266
67013,256
67024,249
67036,271
67047,268
67058,271
67069,285
67082,281
67093,268
67104,299
67116,303
67127,302
67138,323
67150,308
67162,299
67173,283
67184,291
67195,307
67207,303
67219,310
67230,307
67241,303
67253,352
67264,353
67275,341
67288,332
67299,327
67310,338
67321,319
67333,326
67345,320
67356,315
67367,312
67379,310
67390,304
67401,297
67414,292
67425,288
67436,288
67447,294
67459,304
67470,294
67482,287
67493,279
67505,267
67516,271
67527,283
67538,282
67551,275
67562,272
67573,279
67585,279
67596,281
67607,279
67619,283
67631,280
67642,282
67653,286
67664,281
67677,276
67688,276
67699,265
67710,271
67722,269
67733,273
67745,274
67757,271
67768,261
67779,256
67790,254
67802,258
67814,265
67825,259
67836,264
67848,266
67859,257
67870,256
67883,257
67894,262
67905,267
67916,265
67928,263
67939,254
67951,252
67962,248
67974,246
67985,252
67996,248
68008,254
68020,248
68031,251
68042,245
68054,242
68065,246
68077,246
68088,248
68100,247
68111,247
68122,245
68133,249
68146,246
68157,245
68168,249
68179,247
68191,251
68202,244
68214,249
68226,252
68237,252
68248,253
68259,256
68271,264
68283,260
68294,260
68305,262
68317,256
68328,253
68339,253
68352,262
68363,259
68374,260
68385,257
68397,256
68409,258
68420,262
68431,262
68443,259
68454,261
68465,264
68477,265
68489,261
68500,259
68511,261
68523,259
68534,257
68546,253
68557,245
68569,249
68580,255
68591,259
68602,263
68615,272
68626,268
68637,263
68648,268
68660,269
68671,269
68683,270
68695,262
68706,255
68717,249
68728,258
68741,261
68752,268
68763,262
68774,258
68786,249
68797,245
68809,246
68820,240
68832,248
68843,268
68854,275
68866,263
68878,273
68889,267
68900,256
68912,247
68923,267
68934,305
68946,291
68958,288
68969,288
68980,282
68992,288
69003,300
69015,283
69026,290
69038,280
69049,279
69060,275
69071,293
69084,287
69095,275
69106,271
69117,267
69129,261
69141,262
69152,273
69164,274
69175,273
69186,268
69197,263
69210,271
69221,270
69232,266
69243,270
69255,266
69266,272
69278,270
69289,260
69301,262
69312,269
69323,263
69335,259
69347,259
69358,257
69369,253
69381,250
69392,248
69403,247
69415,244
69427,247
69438,241
69449,250
69460,252
69473,248
69484,247
69495,258
69507,267
69518,260
69529,256
69541,252
69553,246
69564,242
69575,244
69586,254
69598,250
69610,247
69621,250
69633,245
69644,251
69655,258
69666,258
69679,253
69690,255
69701,252
69712,247
69724,258
69735,262
69747,265
69758,261
69770,254
69781,251
69792,246
69804,251
69816,255
69827,260
69838,260
69850,257
69861,251
69873,244
69884,247
69896,246
69907,247
69918,253
69929,255
69942,256
69953,251
69964,257
69976,251
69987,250
69998,255
70010,255
70022,256
70033,254
70044,261
70055,253
70067,259
70079,263
70090,259
70102,259
70113,271
70124,268
70135,263
70148,266
70159,267
70170,261
70181,256
70193,254
70204,260
70216,255
70227,255
70239,255
70250,254
70261,250
70274,247
70285,253
70296,255
70307,258
70319,255
70330,246
70342,245
70353,242
70365,240
70376,245
70387,251
70398,253
70411,248
70422,251
70433,248
70445,245
70456,252
70467,257
70479,262
70491,256
70502,257
70513,254
70524,256
70536,255
70548,253
70559,255
70571,253
70582,269
70593,268
70605,267
70617,268
70628,266
70639,264
70650,263
70662,269
70674,266
70685,266
70696,265
70708,257
70719,256
70730,258
70743,266
70754,269
70765,278
70776,280
70788,274
70799,267
70811,268
70822,273
70834,274
70845,275
70856,273
70867,269
70880,267
70891,268
70902,263
70914,265
70925,271
70937,275
70948,273
70960,269
70971,267
70982,268
70993,263
71006,263
71017,270
71028,270
71040,274
71051,270
71062,272
71074,273
71086,273
71097,275
71108,271
71119,277
71131,272
71143,270
71154,276
71165,281
71177,282
71188,276
71199,285
71212,283
71223,278
71234,279
71245,282
71257,283
71268,283
71280,290
71291,288
71303,289
71314,287
71325,277
71337,280
71349,288
71360,297
71371,292
71383,289
71394,285
71406,280
71417,276
71429,281
71440,292
71451,292
71462,294
71475,289
71486,280
71497,277
71508,280
71520,287
71531,291
71543,298
71555,296
71566,284
71577,283
71588,283
71600,286
71612,286
71623,289
71634,294
71646,292
71657,290
71669,286
71681,285
71692,288
71703,292
71714,292
71726,288
71738,295
71749,294
71760,291
71772,287
71783,287
71794,295
71806,293
71818,301
71829,291
71840,285
71852,284
71863,283
71875,280
71886,283
71898,297
71909,295
71920,292
71931,290
71944,287
71955,287
71966,291
71977,298
71989,287
72000,288
72012,287
72024,286
72035,288
72046,288
72057,286
72070,280
72081,284
72092,287
72103,284
72115,284
72126,290
72138,288
72150,281
72161,281
72172,284
72183,288
72195,291
72207,293
72218,296
72229,289
72241,286
72252,283
72263,277
72275,283
72287,289
72298,295
72309,293
72321,290
72332,287
72344,278
72355,279
72367,280
72378,288
72389,291
72401,290
72413,287
72424,279
72435,278
72446,267
72458,269
72470,277
72481,283
72493,281
72504,274
72515,282
72526,272
72539,270
72550,272
72561,271
72572,275
72584,270
72595,273
72607,274
72619,282
72630,280
72641,276
72652,275
72664,275
72676,275
72687,273
72698,279
72710,280
72721,278
72732,274
72744,272
72756,269
72767,267
72778,277
72790,278
72802,278
72813,279
72824,280
72836,276
72847,276
72858,277
72870,282
72882,279
72893,282
72904,281
72915,276
72927,275
72939,275
72950,274
72962,270
72973,283
72984,283
72995,276
73008,271
73019,266
73030,266
73041,263
73053,271
73064,271
73076,277
73088,273
73099,268
73110,262
73121,263
73133,274
73145,272
73156,271
73167,275
73179,272
73190,262
73202,260
73213,270
73225,273
73236,279
73247,279
73259,272
73271,267
73282,269
73293,279
73305,279
73316,277
73327,276
73339,272
73351,267
73362,270
73373,272
73384,275
73396,278
73408,276
73419,268
73431,263
73442,265
73453,265
73464,266
73477,269
73488,274
73499,273
73510,272
73522,267
73534,264
73545,265
73556,262
73568,263
73579,263
73590,275
73603,275
73614,265
73625,260
73636,256
73648,254
73659,256
73671,271
73682,272
73694,268
73705,268
73716,264
73728,262
73740,267
73751,282
73762,283
73774,275
73785,270
73796,268
73808,266
73820,261
73831,258
73842,257
73853,269
73866,276
73877,275
73888,266
73900,265
73911,267
73922,261
73934,260
73946,266
73957,269
73968,268
73979,272
73991,270
74003,266
74014,265
74025,263
74037,262
74048,271
74059,278
74072,276
74083,270
74094,266
74105,265
74117,261
74128,264
74140,272
74151,275
74163,275
74174,269
74185,264
74196,257
74209,258
74220,260
74231,268
74243,273
74254,264
74266,259
74277,255
74289,266
74300,267
74311,273
74322,276
74335,270
74346,266
74357,269
74369,282
74380,277
74391,277
74403,274
74415,265
74426,260
74437,262
74448,268
74460,270
74472,275
74483,278
74494,275
74506,265
74517,272
74528,281
74541,284
74552,285
74563,284
74574,277
74586,275
74598,274
74609,270
74620,273
74632,279
74643,280
74654,277
74667,278
74678,277
74689,270
74700,270
74712,268
74723,270
74735,267
74746,271
74758,278
74769,275
74780,273
74791,269
74804,270
74815,269
74826,282
74838,283
74849,277
74860,276
74872,271
74884,268
74895,264
74906,272
74917,276
74929,277
74941,279
74952,271
74963,263
74975,262
74986,273
74998,272
75010,272
75021,274
75032,270
75043,262
75055,257
75067,263
75078,263
75089,269
75101,272
75112,271
75123,268
75136,268
75147,271
75158,267
75169,266
75181,271
75192,273
75204,272
75215,275
75227,273
75238,267
75249,266
75260,264
75273,262
75284,269
75295,274
75307,277
75318,272
75330,270
75341,266
75353,261
75364,269
75375,280
75386,281
75399,280
75410,275
75421,276
75432,271
75444,278
75455,280
75467,280
75479,276
75490,275
75501,276
75512,271
75524,269
75536,262
75547,260
75558,264
75570,262
75581,265
75592,269
75604,277
75616,273
75627,265
75638,265
75650,259
75661,258
75673,261
75684,273
75696,275
75707,274
75718,271
75730,266
75742,259
75753,262
75764,266
75776,267
75787,267
75799,269
75810,270
75822,267
75833,265
75844,260
75855,261
75868,263
75879,264
75890,262
75901,266
75913,267
75924,260
75936,263
75948,269
75959,275
75970,276
75981,277
75993,279
76005,275
76016,272
76027,270
76039,273
76050,274
76062,283
76073,281
76085,276
76096,275
76107,271
76119,268
76131,268
76142,282
76153,284
76165,282
76176,284
76187,281
76199,275
76211,271
76222,287
76233,287
76244,294
76256,294
76268,288
76279,282
76291,279
76302,279
76313,277
76324,286
76337,291
76348,294
76359,288
76370,288
76382,293
76393,284
76405,289
76417,292
76428,293
76439,291
76450,287
76463,285
76474,285
76485,291
76496,290
76508,287
76519,291
76531,294
76542,288
76554,282
76565,283
76576,289
76588,288
76600,287
76611,287
76622,291
76634,295
76645,301
76656,305
76668,303
76680,309
76691,306
76702,304
76713,304
76725,309
76737,312
76748,310
76760,321
76771,320
76782,320
76794,319
76806,313
76817,310
76828,313
76839,328
76851,319
76863,325
76874,332
76886,332
76897,327
76908,331
76919,353
76932,351
76943,361
76954,364
76965,356
76977,345
76988,352
77000,372
77011,366
77023,368
77034,362
77045,360
77057,358
77069,369
77080,377
77091,370
77103,377
77114,373
77125,363
77137,359
77149,364
77160,376
77171,373
77182,378
77195,373
77206,367
77217,362
77229,360
77240,369
77251,371
77263,377
77275,373
77286,376
77297,379
77308,374
77320,378
77332,375
77343,376
77355,371
77366,370
77377,373
77388,369
77401,377
77412,378
77423,383
77434,371
77446,374
77457,376
77469,367
77480,375
77492,381
77503,386
77514,376
77526,377
77538,380
77549,372
77560,377
77572,372
77583,373
77595,356
77606,363
77618,363
77629,344
77640,345
77651,342
77664,338
77675,323
77686,319
77698,317
77709,304
77720,306
77732,303
77744,305
77755,305
77766,304
77777,308
77789,295
77801,295
77812,291
77824,295
77835,298
77846,296
77857,299
77870,288
77881,289
77892,282
77903,277
77915,283
77927,285
77938,286
77949,269
77961,262
77972,268
77983,271
77996,261
78007,267
78018,272
78029,278
78041,281
78052,274
78064,280
78075,282
78087,286
78098,302
78109,313
78120,356
78133,421
78144,474
78155,496
78167,520
78178,588
78189,675
78201,751
78213,832
78224,865
78235,905
78246,907
78259,949
78270,997
78281,1018
78294,1023
78306,1023
78318,1023
78331,1023
78344,1023
78356,1023
78368,1023
78381,1023
78394,1023
78406,1023
78418,1023
78431,1023
78443,1023
78455,1023
78469,1023
78481,1023
78493,1023
78505,1023
78518,1023
78531,1023
78543,1023
78556,1023
78568,1023
78580,1023
78594,1023
78606,1023
78618,1023
78630,1023
78643,1023
78655,1023
78668,1023
78681,1023
78693,1023
78705,1023
78717,1023
78731,1023
78743,1023
78755,1023
78768,1023
78780,1023
78793,1023
78806,1023
78818,1023
78830,1023
78842,1023
78855,1023
78868,1023
78880,1023
78893,1023
78905,1023
78917,1023
78930,1023
78943,1023
78955,1023
78967,1023
78980,1023
78993,1023
79005,1023
79017,1023
79030,1023
79042,1023
79054,1023
79068,1023
79080,1023
79092,1023
79105,1023
79117,1023
79130,1023
79142,1023
79155,1023
79167,1023
79179,1023
79193,1023
79205,1023
79217,1023
79229,1023
79242,1023
79254,1023
79267,1023
79280,1023
79292,1023
79304,1023
79316,1023
79330,1023
79342,1023
79354,1023
79367,1023
79379,1023
79392,1023
79405,1023
79417,1023
79429,1023
79441,1023
79454,1023
79467,1023
79479,1023
79492,1023
79504,1023
79516,1023
79529,1023
79542,1023
79554,1023
79566,1023
79579,1023
79592,1023
79604,977
79616,891
79627,770
79638,674
79649,602
79662,539
79673,495
79684,452
79695,419
79707,386
79718,364
79730,340
79741,322
79753,315
79764,309
79775,298
79787,294
79799,295
79810,294
79821,286
79833,278
79844,279
79856,278
79867,279
79879,282
79890,275
79901,267
79912,266
79925,257
79936,255
79947,262
79959,274
79970,273
79981,264
79993,262
80005,260
80016,258
80027,268
80038,270
80050,277
80062,273
80073,273
80084,270
80096,271
80107,281
80118,277
80131,270
80142,270
80153,274
80164,272
80176,271
80187,277
80199,273
80210,277
80222,276
80233,274
80244,278
80257,281
80268,282
80279,281
80290,290
80302,294
80313,290
80325,285
80336,286
80348,285
80359,285
80370,289
80381,286
80394,280
80405,275
80416,279
80428,288
80439,288
80450,282
80462,280
80474,274
80485,277
80496,282
80507,288
80519,288
80531,292
80542,287
80553,280
80565,280
80576,285
80588,292
80600,296
80611,304
80622,307
80633,311
80645,312
80657,311
80668,318
80679,323
80691,330
80702,328
80713,324
80726,325
80737,317
80748,312
80759,311
80771,310
80782,307
80794,307
80805,305
80817,302
80828,301
80839,299
80850,293
80863,294
80874,297
80885,309
80897,311
80908,314
80919,312
80931,306
80943,302
80954,300
80965,299
80976,294
80989,296
81000,288
81011,279
81022,270
81034,270
81045,269
81057,267
81069,273
81080,273
81091,271
81102,263
81114,263
81126,266
81137,267
81148,269
81160,264
81171,252
81182,252
81195,256
81206,263
81217,264
81228,272
81240,271
81251,260
81263,262
81274,262
81286,270
81297,270
81308,270
81319,271
81332,267
81343,267
81354,262
81366,270
81377,274
81389,282
81400,279
81412,273
81423,278
81434,267
81445,265
81458,270
81469,273
81480,277
81491,275
81503,276
81514,266
81526,271
81538,271
81549,267
81560,268
81571,274
81583,286
81595,282
81606,281
81617,275
81629,268
81640,263
81651,267
81664,275
81675,273
81686,278
81697,280
81709,277
81721,272
81732,272
81743,275
81755,274
81766,279
81777,280
81789,280
81801,278
81812,274
81823,274
81835,272
81846,278
81858,277
81869,274
81881,283
81892,282
81903,282
81914,276
81927,273
81938,275
81949,268
81960,278
81972,283
81983,285
81995,280
82007,279
82018,280
82029,278
82040,291
82052,283
82064,281
82075,278
82086,273
82098,269
82109,272
82121,281
82132,277
82144,284
82155,280
82166,276
82178,275
82190,280
82201,291
82212,288
82224,288
82235,284
82246,276
82258,268
82270,272
82281,283
82292,281
82304,285
82315,285
82327,279
82338,276
82350,273
82361,275
82372,275
82383,279
82396,280
82407,272
82418,267
82429,271
82441,282
82453,283
82464,285
82476,281
82487,275
82498,279
82509,270
82522,270
82533,273
82544,278
82555,278
82567,269
82578,274
82590,273
82601,272
82613,270
82624,273
82635,279
82647,277
82659,283
82670,269
82681,270
82693,271
82704,272
82715,268
82727,271
82739,274
82750,265
82761,262
82772,257
82785,255
82796,251
82807,253
82819,253
82830,247
82841,259
82853,243
82865,235
82876,242
82887,253
82898,259
82910,261
82922,259
82933,262
82945,262
82956,277
82967,285
82978,293
82991,291
83002,302
83013,308
83024,310
83036,323
83047,327
83059,336
83070,337
83082,341
83093,338
83104,340
83116,350
83128,356
83139,368
83150,365
83162,371
83173,375
83185,374
83196,383
83208,387
83219,410
83230,409
83241,413
83254,419
83265,423
83276,420
83288,402
83299,398
83310,382
83322,371
83334,357
83345,343
83356,331
83367,320
83379,323
83391,323
83402,315
83414,310
83425,307
83436,311
83447,309
83460,319
83471,327
83482,334
83493,360
83505,371
83517,384
83528,384
83539,396
83551,412
83562,446
83573,480
83586,486
83597,505
83608,508
83619,536
83631,555
83642,584
83654,603
83665,591
83677,595
83688,593
83699,626
83710,660
83723,651
83734,644
83745,620
83757,619
83768,619
83779,646
83791,680
83803,687
83814,649
83825,604
83836,583
83848,559
83860,550
83871,547
83883,545
83894,554
83905,538
83917,558
83929,572
83940,587
83951,593
83962,601
83974,619
83986,607
83997,664
84008,718
84020,749
84031,735
84042,710
84055,698
84066,662
84077,661
84088,652
84100,654
84111,648
84123,639
84134,653
84146,640
84157,645
84168,637
84179,632
84192,646
84203,635
84214,655
84226,646
84237,675
84249,688
84260,703
84272,706
84283,678
84294,659
84305,640
84318,635
84329,629
84340,620
84352,624
84363,611
84374,619
84386,623
84398,625
84409,632
84420,635
84431,645
84443,636
84455,648
84466,661
84477,670
84489,677
84500,676
84511,688
84524,669
84535,669
84546,671
84557,661
84569,654
84580,654
84592,645
84603,628
84615,635
84626,644
84637,647
84649,678
84661,688
84672,693
84683,687
84695,708
84706,714
84718,713
84729,709
84741,710
84752,727
84763,796
84774,914
84787,990
84798,970
84809,923
84820,876
84832,836
84843,800
84855,787
84867,780
84878,767
84889,764
84900,737
84912,729
84924,724
84935,728
84946,721
84958,707
84969,697
84980,665
84993,639
85004,615
85015,571
85026,504
85038,443
85050,407
85061,371
85072,347
85084,328
85095,314
85106,302
85118,284
85130,281
85141,272
85152,276
85164,276
85175,270
85187,264
85198,259
85210,260
85221,257
85232,261
85243,262
85256,264
85267,259
85278,255
85289,262
85301,262
85312,268
85324,274
85336,273
85347,274
85358,275
85369,277
85382,277
85393,284
85404,289
85415,283
85427,286
85438,292
85450,296
85462,294
85473,297
85484,306
85495,300
85507,298
85519,303
85530,303
85541,296
85553,294
85564,302
85575,301
85587,309
85599,311
85610,313
85621,315
85633,312
85644,312
85656,310
85667,331
85679,338
85690,338
85701,333
85713,328
85725,317
85736,307
85747,318
85758,317
85770,311
85782,308
85793,299
85805,295
85816,291
85827,299
85838,293
85851,298
85862,293
85873,284
85884,283
85896,287
85907,301
85919,297
85931,297
85942,297
85953,293
85964,291
85976,295
85988,308
85999,309
86010,312
86022,310
86033,300
86044,299
86056,304
86068,309
86079,302
86090,299
86102,300
86114,295
86125,304
86136,311
86148,310
86159,310
86170,306
86182,301
86194,293
86205,299
86216,314
86227,320
86239,322
86251,323
86262,323
86274,318
86285,317
86296,316
86307,323
86320,337
86331,343
86342,340
86353,336
86365,341
86376,329
86388,331
86400,336
86411,340
86422,340
86433,342
86446,350
86457,344
86468,343
86479,341
86491,343
86502,335
86514,344
86525,345
86537,333
86548,337
86559,338
86571,337
86583,329
86594,333
86605,334
86617,326
86628,327
86639,325
86651,329
86663,319
86674,331
86685,329
86696,321
86708,320
86720,315
86731,324
86743,330
86754,336
86765,345
86776,343
86789,338
86800,334
86811,337
86822,335
86834,342
86846,342
86857,344
86868,344
86880,331
86891,323
86902,323
86915,322
86926,325
86937,327
86948,328
86960,326
86971,323
86983,323
86994,324
87006,330
87017,332
87028,329
87040,318
87052,319
87063,326
87074,317
87086,325
87097,325
87108,326
87120,319
87132,315
87143,317
87154,311
87165,316
87178,319
87189,327
87200,325
87212,343
87223,343
87234,334
87246,331
87258,325
87269,325
87280,318
87291,321
87303,326
87315,324
87326,327
87337,320
87349,322
87360,315
87371,315
87384,305
87395,303
87406,296
87417,291
87429,278
87440,280
87452,274
87463,269
87475,259
87486,253
87497,255
87508,253
87521,258
87532,253
87543,253
87555,250
87566,246
87578,245
87589,243
87601,256
87612,259
87623,258
87634,259
87647,260
87658,268
87669,268
87681,277
87692,270
87703,274
87715,274
87727,269
87738,275
87749,279
87760,286
87772,281
87784,282
87795,281
87806,278
87818,278
87829,284
87840,295
87853,294
87864,288
87875,282
87886,276
87898,276
87910,280
87921,286
87932,284
87944,287
87955,284
87966,278
87979,288
87990,294
88001,291
88012,285
88024,283
88035,285
88047,278
88058,280
88070,278
88081,278
88092,275
88103,272
88116,274
88127,271
88138,278
88150,275
88161,272
88172,271
88184,269
88196,271
88207,268
88218,279
88229,276
88241,277
88253,279
88264,272
88275,266
88287,260
88298,268
88310,266
88322,269
88333,273
88344,270
88355,264
88367,260
88379,266
88390,267
88401,271
88413,273
88424,274
88435,272
88448,266
88459,268
88470,268
88481,276
88493,276
88504,270
88516,268
88527,268
88539,267
88550,264
88561,269
88572,274
88585,273
88596,273
88607,268
88619,273
88630,272
88642,274
88653,274
88665,272
88676,274
88687,267
88698,263
88711,268
88722,272
88733,276
88744,270
88756,276
88767,274
88779,275
88791,271
88802,271
88813,276
88824,273
88836,281
88848,277
88859,275
88870,274
88882,269
88893,266
88904,265
88916,276
88928,277
88939,280
88950,275
88962,266
88973,267
88985,269
88996,276
89008,275
89019,279
89030,277
89042,267
89054,268
89065,274
89076,285
89088,281
89099,278
89111,279
89122,273
89134,274
89145,276
89156,281
89167,275
89180,272
89191,272
89202,269
89213,275
89225,280
89236,273
89248,270
89260,268
89271,271
89282,269
89293,274
89305,275
89317,276
89328,270
89339,265
89351,263
89362,261
89374,273
89385,271
89397,272
89408,266
89419,262
89431,258
89443,253
89454,265
89465,266
89477,268
89488,269
89499,271
89511,270
89523,262
89534,263
89545,262
89556,268
89568,271
89580,267
89591,261
89603,261
89614,265
89625,263
89636,266
89649,270
89660,263
89671,258
89682,256
89694,257
89705,256
89717,258
89729,261
89740,259
89751,254
89762,255
89775,258
89786,263
89797,264
89808,266
89820,260
89831,256
89843,258
89854,260
89866,262
89877,265
89888,259
89900,248
89912,251
89923,256
89934,263
89946,262
89957,257
89968,253
89980,243
89992,245
90003,244
90014,250
90025,256
90037,257
90049,255
90060,248
90072,251
90083,249
90094,249
90106,256
90118,260
90129,261
90140,254
90151,253
90163,247
90175,249
90186,257
90198,255
90209,253
90220,256
90231,258
90244,253
90255,252
90266,254
90277,254
90289,255
90300,260
90312,258
90323,251
90335,250
90346,258
90357,257
90369,254
90381,255
90392,255
90403,250
90415,249
90426,250
90437,252
90449,258
90461,262
90472,264
90483,263
90494,264
90507,259
90518,254
90529,261
90541,266
90552,267
90563,265
90575,264
90587,261
90598,254
90609,260
90620,266
90632,272
90644,274
90655,268
90667,263
90678,257
90689,261
90700,259
90713,262
90724,272
90735,273
90746,276
90758,268
90769,275
90781,277
90792,278
90804,285
90815,283
90826,281
90839,276
90850,283
90861,279
90872,281
90884,276
90895,266
90907,267
90918,268
90930,274
90941,275
90952,281
90963,280
90976,273
90987,269
90998,269
91010,278
91021,276
91032,276
91044,280
91056,282
91067,281
91078,278
91089,278
91101,277
91113,284
91124,286
91136,277
91147,283
91158,284
91169,279
91182,277
91193,271
91204,267
91215,274
91227,286
91239,275
91250,281
91261,277
91273,276
91284,279
91295,285
91308,291
91319,288
91330,284
91341,289
91353,280
91364,285
91376,280
91387,285
91399,286
91410,295
91421,299
91432,302
91445,299
91456,300
91467,285
91479,284
91490,290
91501,288
91513,285
91525,313
91536,323
91547,337
91558,347
91570,344
91582,343
91593,337
91604,340
91616,357
91627,345
91639,333
91651,350
91662,347
91673,350
91684,359
91696,350
91708,329
91719,311
91730,317
91742,322
91753,320
91764,317
91777,350
91788,342
91799,344
91810,314
91822,326
91833,327
91845,325
91856,340
91868,338
91879,348
91890,347
91901,327
91914,316
91925,305
91936,290
91948,304
91959,321
91971,308
91982,301
91994,319
92005,340
92016,348
92027,335
92040,337
92051,320
92062,328
92073,319
92085,341
92096,344
92108,327
92120,327
92131,314
92142,325
92153,315
92165,340
92177,335
92188,326
92199,319
92211,326
92222,320
92233,321
92246,318
92257,326
92268,334
92279,319
92291,327
92303,360
92314,359
92325,354
92337,367
92348,367
92359,372
92371,371
92383,362
92394,365
92405,350
92417,364
92428,346
92440,356
92451,344
92463,339
92474,329
92485,323
92496,313
92509,308
92520,304
92531,294
92542,295
92554,307
92565,324
92577,332
92589,330
92600,306
92611,292
92622,314
92634,311
92646,314
92657,309
92668,342
92680,366
92691,368
92703,381
92715,379
92726,394
92737,377
92748,377
92760,370
92772,355
92783,350
92794,341
92806,326
92817,309
92828,303
92840,296
92852,287
92863,302
92874,302
92886,300
92897,327
92909,319
92920,334
92932,359
92943,339
92954,353
92965,338
92978,319
92989,346
93000,329
93011,333
93023,325
93035,340
93046,337
93058,317
93069,313
93080,325
93091,320
93104,320
93115,317
93126,297
93137,286
93149,287
93160,312
93172,309
93184,303
93195,305
93206,324
93217,312
93229,296
93241,297
93252,289
93263,293
93275,293
93286,275
93297,268
93309,266
93321,266
93332,262
93343,267
93355,271
93366,268
93378,264
93389,260
93401,260
93412,258
93423,257
93435,262
93447,258
93458,265
93469,271
93480,275
93492,268
93504,269
93515,267
93527,260
93538,267
93549,275
93560,279
93573,281
93584,278
93595,272
93606,263
93618,269
93629,282
93641,282
93652,283
93664,279
93675,280
93686,274
93698,275
93710,278
93721,278
93732,282
93744,281
93755,272
93767,262
93778,261
93790,265
93801,278
93812,288
93824,316
93836,313
93847,300
93858,291
93870,296
93881,291
93892,300
93904,298
93916,283
93927,272
93938,259
93949,249
93961,246
93973,239
93984,243
93996,251
94007,246
94018,251
94029,250
94042,251
94053,261
94064,252
94075,269
94087,270
94098,276
94110,283
94121,284
94133,276
94144,279
94155,280
94168,284
94179,280
94190,279
94201,287
94213,284
94224,283
94236,288
94247,306
94259,302
94270,305
94281,299
94292,301
94305,303
94316,314
94327,303
94339,301
94350,292
94361,292
94373,291
94385,292
94396,278
94407,258
94418,252
94430,245
94442,253
94453,266
94465,260
94476,258
94487,249
94499,247
94511,256
94522,257
94533,258
94544,250
94556,249
94568,239
94579,248
94590,246
94602,247
94613,244
94624,237
94637,240
94648,234
94659,233
94670,241
94682,242
94693,234
94705,235
94716,239
94728,235
94739,243
94750,236
94761,224
94774,220
94785,218
94796,218
94808,220
94819,229
94830,235
94842,223
94854,215
94865,215
94876,209
94887,201
94900,208
94911,206
94922,204
94934,210
94945,205
94956,223
94968,221
94980,224
94991,217
95002,220
95013,214
95025,207
95037,219
95048,215
95059,218
95071,221
95082,222
95093,218
95106,211
95117,223
95128,211
95139,219
95151,219
95162,217
95174,228
95185,219
95197,218
95208,221
95219,221
95232,218
95243,214
95254,209
95265,204
95277,202
95288,209
95300,209
95311,214
95323,216
95334,227
95345,219
95356,224
95369,225
95380,224
95391,227
95403,224
95414,242
95425,245
95437,249
95449,249
95460,246
95471,257
95482,257
95494,262
95506,258
95517,252
95528,251
95540,244
95551,250
95562,241
95575,261
95586,256
95597,262
95608,261
95620,250
95632,264
95643,256
95654,269
95666,257
95677,249
95688,245
95700,237
95712,248
95723,243
95734,248
95746,251
95757,241
95769,236
95780,233
95792,241
95803,236
95814,241
95825,239
95838,235
95849,233
95860,225
95872,223
95883,226
95894,229
95906,229
95918,228
95929,227
95940,219
95951,214
95963,211
95975,217
95986,211
95997,203
96009,204
96020,209
96032,214
96044,207
96055,204
96066,195
96077,187
96089,187
96101,187
96112,191
96123,191
96135,193
96146,197
96157,193
96169,203
96181,195
96192,195
96203,205
96215,210
96226,213
96238,208
96249,215
96261,212
96272,207
96283,210
96294,209
96307,211
96318,207
96329,213
96340,216
96352,217
96364,211
96375,204
96387,202
96398,202
96409,207
96420,206
96433,210
96444,210
96455,204
96466,201
96478,199
96489,201
96501,203
96513,209
96524,205
96535,205
96546,201
96558,204
96570,203
96581,202
96592,212
96604,213
96615,209
96626,207
96638,203
96650,205
96661,203
96672,211
96684,217
96696,219
96707,218
96718,213
96730,223
96741,218
96752,225
96764,226
96776,225
96787,226
96798,220
96809,223
96821,220
96833,218
96844,219
96856,219
96867,218
96878,212
96889,214
96902,207
96913,204
96924,200
96935,198
96947,206
96958,201
96970,207
96982,203
96993,199
97004,194
97015,191
97027,198
97039,202
97050,211
97061,204
97073,200
97084,196
97096,189
97107,190
97119,193
97130,200
97141,195
97153,195
97165,198
97176,198
97187,198
97199,199
97210,201
97221,206
97233,205
97245,205
97256,204
97267,200
97278,195
97290,193
97302,195
97313,192
97325,196
97336,194
97347,196
97358,193
97371,191
97382,189
97393,188
97404,199
97416,203
97427,207
97439,200
97451,200
97462,199
97473,197
97484,201
97497,199
97508,207
97519,201
97530,199
97542,199
97553,196
97565,203
97576,201
97588,203
97599,202
97610,198
97622,196
97634,196
97645,205
97656,207
97668,209
97679,206
97690,205
97702,206
97714,204
97725,203
97736,203
97747,211
97759,208
97771,203
97782,198
97794,197
97805,195
97816,203
97828,209
97840,208
97851,206
97862,199
97873,196
97885,193
97897,197
97908,197
97920,200
97931,201
97942,205
97953,204
97966,196
97977,193
97988,183
97999,183
98011,185
98022,186
98034,185
98045,189
98057,182
98068,178
98079,174
98091,169
98103,174
98114,173
98125,174
98137,175
98148,176
98160,175
98171,172
98183,176
98194,176
98205,184
98216,183
98229,181
98240,179
98251,177
98263,172
98274,176
98285,178
98297,174
98309,178
98320,173
98331,169
98342,169
98354,172
98366,173
98377,178
98388,185
98400,181
98411,178
98422,180
98435,181
98446,179
98457,178
98468,177
98480,178
98491,180
98503,174
98514,174
98526,175
98537,177
98548,181
98561,184
98572,184
98583,179
98594,181
98606,186
98617,188
98629,186
98640,193
98652,186
98663,183
98674,185
98685,190
98698,194
98709,191
98720,200
98732,198
98743,196
98754,199
98766,201
98778,205
98789,206
98800,209
98811,200
98823,204
98835,197
98846,193
98857,195
98869,202
98880,214
98892,210
98904,207
98915,200
98926,198
98937,194
98949,195
98961,202
98972,203
98983,206
98995,201
99006,200
99017,200
99030,206
99041,210
99052,210
99063,212
99075,214
99086,212
99098,212
99109,218
99121,224
99132,225
99143,227
99154,225
99167,218
99178,212
99189,209
99201,209
99212,209
99223,213
99235,211
99247,206
99258,208
99269,211
99280,227
99293,223
99304,221
99315,221
99326,212
99338,207
99349,204
99361,211
99373,208
99384,205
99395,201
99406,195
99418,198
99430,192
99441,199
99452,198
99464,194
99475,192
99486,190
99499,187
99510,188
99521,195
99532,195
99544,193
99555,188
99567,184
99578,183
99590,181
99601,182
99612,184
99624,186
99636,190
99647,187
99658,185
99670,189
99681,194
99693,192
99704,186
99716,190
99727,190
99738,184
99749,185
99762,188
99773,192
99784,195
99795,190
99807,186
99818,179
99830,179
99842,179
99853,182
99864,183
99875,186
99887,182
99899,176
99910,179
99921,178
99933,179
99944,174
99955,179
99968,177
99979,174
99990,172
100001,169
100014,170
100027,174
100039,169
100051,178
100064,181
100076,175
100088,179
100102,178
100114,183
100126,183
100139,186
100151,184
100164,179
100176,183
100189,183
100201,192
100213,198
100227,201
100239,199
100251,196
100263,191
100276,199
100288,194
100301,196
100314,197
100326,196
100338,193
100350,187
100364,189
100376,194
100388,193
100401,188
100413,188
100426,187
100439,183
100451,182
100463,192
100475,197
100488,206
100501,197
100513,193
100526,188
100538,184
100550,179
100563,179
100576,177
100588,178
100600,174
100613,181
100626,177
100638,180
100651,177
100663,178
100675,178
100687,178
100701,187
100713,189
100725,192
100738,188
100750,185
100763,182
100775,188
100788,193
100800,194
100812,210
100826,204
100838,198
100850,196
100862,194
100875,188
100887,187
100900,186
100913,194
100925,192
100937,190
100950,181
100963,179
100975,176
100987,179
101000,180
101012,185
101025,183
101038,180
101050,180
101062,185
101074,183
101087,184
101100,188
101112,187
101125,185
101137,181
101149,180
101163,183
101175,186
101187,187
101199,185
101212,187
101225,186
101237,184
101250,179
101262,183
101274,188
101286,185
101300,178
101312,178
101324,181
101337,187
101349,184
101362,185
101374,189
101387,182
101399,183
101411,184
101425,186
101437,184
101449,185
101462,185
101474,179
101486,178
101499,177
101512,177
101524,181
101536,179
101549,179
101562,184
101574,182
101586,188
101599,189
101611,189
101624,190
101637,182
101649,184
101661,189
101673,192
101686,198
101699,201
101711,205
101724,203
101736,201
101748,193
101762,192
101774,186
101786,187
101798,189
101811,190
101824,186
101836,180
101849,177
101861,179
101873,176
101885,175
101899,174
101911,170
101923,179
101936,179
101948,191
101961,189
101974,189
101986,190
101998,194
102010,188
102024,192
102036,196
102048,198
102061,201
102073,207
102085,202
102098,210
102111,206
102123,202
102135,199
102148,194
102161,191
102173,194
102185,190
102198,190
102210,186
102223,181
102236,175
102248,188
102260,192
102273,190
102285,185
102298,189
102310,188
102323,197
102335,193
102347,195
102361,190
102373,186
102385,184
102397,198
102410,202
102423,204
102435,199
102448,198
102460,198
102472,201
102484,202
102498,209
102510,213
102522,209
102535,211
102547,208
102560,214
102573,212
102585,211
102597,217
102609,215
102623,213
102635,211
102647,213
102660,215
102672,215
102684,208
102697,214
102710,208
102722,207
102734,209
102747,207
102760,210
102772,208
102785,202
102797,205
102809,201
102822,202
102835,208
102847,208
102859,209
102872,204
102884,202
102897,204
102909,207
102922,209
102934,217
102946,216
102960,215
102972,214
102984,216
102996,212
103009,216
103022,212
103034,212
103047,207
103059,207
103071,208
103084,209
103097,205
103109,208
103121,204
103134,208
103146,207
103159,213
103172,212
103184,210
103196,207
103208,203
103222,202
103234,210
103246,208
103259,210
103271,205
103283,204
103297,204
103309,208
103321,205
103333,213
103346,208
103359,207
103371,208
103384,203
103396,208
103408,210
103421,205
103434,213
103446,213
103458,217
103471,217
103483,209
103496,214
103508,218
103521,215
103533,227
103545,222
103559,223
103571,223
103583,218
103596,221
103608,226
103621,222
103633,232
103646,226
103658,223
103670,225
103683,221
103696,222
103708,229
103720,228
103733,244
103745,237
103758,229
103771,219
103783,217
103795,216
103808,214
103821,220
103833,227
103845,225
103858,225
103870,218
103882,219
103896,217
103908,215
103920,217
103932,223
103945,224
103958,232
103970,234
103983,232
103995,231
104007,227
104020,223
104033,227
104045,219
104057,219
104070,219
104082,216
104095,215
104108,212
104120,214
104132,217
104144,214
104158,214
104170,221
104182,220
104195,222
104207,217
104220,207
104232,214
104245,215
104257,221
104269,218
104282,218
104295,218
104307,215
104320,215
104332,218
104344,220
104357,215
104370,209
104382,215
104394,216
104407,210
104420,216
104432,217
104444,218
104457,220
104469,221
104481,224
104495,223
104507,217
104519,221
104531,224
104544,226
104557,219
104569,216
104582,224
104594,223
104606,229
104620,229
104632,228
104644,227
104656,216
104669,220
104681,220
104694,219
104707,217
104719,217
104731,214
104743,210
104757,211
104769,221
104781,229
104794,237
104806,242
104819,233
104832,227
104844,221
104856,216
104868,217
104881,221
104894,223
104906,239
104919,246
104931,248
104943,251
104956,254
104969,250
104981,243
104993,233
105006,226
105019,222
105031,217
105043,213
105056,206
105068,204
105080,197
105094,192
105106,180
105118,186
105131,184
105143,188
105156,198
105168,197
105181,195
105193,193
105205,192
105219,202
105231,207
105243,207
105255,210
105268,212
105280,215
105293,217
105306,217
105318,229
105330,235
105342,239
105356,247
105368,253
105380,251
105393,250
105405,251
105418,259
105431,256
105443,250
105455,257
105467,260
105480,262
105493,263
105505,261
105518,267
105530,256
105542,250
105555,253
105568,248
105580,251
105592,253
105605,255
105618,265
105630,255
105643,241
105655,237
105667,234
105679,242
105693,243
105705,233
105717,235
105730,234
105742,233
105755,232
105767,236
105780,237
105792,246
105804,238
105818,244
105830,239
105842,242
105854,249
105867,258
105879,269
105892,263
105905,268
105917,273
105929,281
105942,280
105955,355
105967,352
105979,366
105992,351
106004,343
106017,318
106030,320
106042,340
106054,337
106066,332
106079,318
106092,303
106104,300
106117,291
106129,283
106141,277
106155,268
106167,265
106179,271
106191,268
106204,260
106217,255
106229,258
106242,243
106254,255
106266,243
106278,255
106292,256
106304,270
106316,261
106329,255
106341,242
106354,250
106366,241
106379,239
106391,232
106403,228
106417,231
106429,240
106441,232
106454,244
106466,235
106478,229
106491,232
106504,236
106516,232
106528,230
106541,231
106554,241
106566,237
106578,231
106591,236
106603,239
106616,239
106629,238
106641,232
106653,233
106665,230
106678,222
106691,228
106703,232
106716,233
106728,228
106740,221
106754,226
106766,229
106778,229
106790,229
106803,223
106816,220
106828,218
106841,216
106853,220
106865,222
106877,225
106891,230
106903,225
106915,229
106928,224
106940,219
106953,223
106966,220
106978,218
106990,222
107002,215
107016,217
107028,219
107040,222
107053,230
107065,229
107077,224
107090,222
107103,222
107115,223
107127,225
107140,223
107153,230
107165,226
107177,223
107190,223
107202,221
107215,231
107228,231
107240,227
107252,230
107265,229
107277,224
107290,237
107302,238
107315,241
107327,239
107339,235
107353,237
107365,237
107377,228
107389,243
107402,238
107415,234
107427,227
107440,225
107452,228
107464,232
107476,229
107490,243
107502,244
107514,237
107527,231
107539,236
107552,239
107565,242
107577,234
107589,241
107601,237
107615,235
107627,232
107639,241
107652,246
107664,242
107676,237
107689,240
107702,230
107714,225
107726,233
107739,233
107752,236
107764,244
107777,242
107789,251
107801,252
107814,252
107827,252
107839,249
107851,248
107864,241
107876,234
107889,237
107901,241
107914,244
107926,240
107938,234
107952,239
107964,241
107976,247
107988,257
108001,259
108014,250
108026,254
108039,238
108051,241
108063,237
108076,241
108089,235
108101,236
108113,234
108126,234
108138,233
108151,236
108164,237
108176,236
108188,242
108200,232
108214,229
108226,230
108238,231
108251,239
108263,239
108275,232
108289,235
108301,232
108313,234
108325,282
108338,306
108351,311
108363,331
108376,329
108388,323
108400,347
108413,308
108426,322
108438,334
108450,316
108463,300
108475,296
108488,276
108500,295
108513,291
108525,282
108537,262
108551,256
108563,251
108575,256
108588,258
108600,248
108613,239
108625,242
108638,244
108650,237
108662,240
108675,244
108688,241
108700,235
108712,229
108725,239
108737,242
108750,253
108763,251
108775,244
108787,240
108800,237
108813,222
108825,230
108837,229
108850,226
108862,231
108874,230
108888,234
108900,237
108912,231
108924,239
108937,236
108950,234
108962,233
108975,239
108987,241
108999,238
109012,225
109025,231
109037,231
109049,231
109062,236
109074,240
109087,238
109100,229
109112,224
109124,234
109136,233
109150,235
109162,239
109174,231
109187,232
109199,226
109212,219
109224,224
109237,226
109249,227
109261,224
109274,220
109287,227
109299,222
109312,219
109324,229
109336,226
109349,227
109362,226
109374,221
109386,228
109399,221
109412,218
109424,229
109436,223
109449,218
109461,226
109473,223
109487,229
109499,224
109511,221
109523,232
109536,229
109549,222
109561,221
109574,218
109586,227
109598,230
109612,236
109624,242
109636,238
109648,229
109661,229
109673,227
109686,233
109699,231
109711,241
109723,249
109735,248
109749,234
109761,241
109773,249
109786,249
109798,240
109811,240
109824,232
109836,229
109848,221
109860,231
109873,237
109886,239
109898,236
109911,239
109923,232
109935,230
109948,229
109961,248
109973,245
109985,248
109998,254
110011,255
110023,256
110035,247
110048,236
110060,244
110072,235
110086,229
110098,231
110110,233
110123,254
110135,258
110148,287
110160,316
110173,340
110185,376
110197,354
110211,350
110223,357
110235,351
110247,343
110260,340
110272,328
110285,345
110298,313
110310,295
110322,299
110334,329
110348,305
110360,298
110372,284
110385,281
110397,266
110410,266
110423,266
110435,269
110447,259
110459,268
110472,258
110485,256
110497,259
110510,257
110522,263
110534,254
110547,258
110560,252
110572,254
110584,259
110597,258
110610,261
110622,259
110635,256
110647,256
110659,251
110671,255
110685,251
110697,249
110709,251
110722,250
110734,255
110747,252
110759,248
110772,254
110784,245
110796,257
110810,259
110822,253
110834,249
110846,244
110859,247
110871,245
110884,252
110897,258
110909,254
110921,259
110934,260
110947,257
110959,267
110971,263
110984,260
110996,265
111009,267
111022,275
111034,265
111046,268
111058,268
111071,260
111084,249
111096,250
111109,241
111121,244
111133,240
111147,239
111159,240
111171,239
111183,227
111196,234
111209,229
111221,231
111234,231
111246,229
111258,232
111270,231
111284,223
111296,231
111308,226
111321,225
111333,224
111346,222
111358,227
111371,230
111383,228
111395,238
111409,229
111421,225
111433,224
111446,225
111458,237
111470,246
111483,237
111496,244
111508,236
111520,233
111533,232
111546,231
111558,240
111570,241
111583,236
111595,244
111608,240
111621,234
111633,240
111645,242
111657,249
111670,242
111683,235
111695,245
111708,243
111720,245
111732,245
111746,241
111758,253
111770,255
111782,262
111795,275
111808,268
111820,265
111833,273
111845,269
111857,270
111869,266
111883,257
111895,266
111907,262
111920,248
111932,255
111945,247
111958,245
111970,235
111982,229
111994,236
112008,237
112020,242
112032,289
112045,380
112057,429
112069,464
112082,526
112095,500
112107,472
112119,453
112132,443
112145,413
112157,409
112169,386
112182,375
112194,368
112207,340
112220,311
112232,302
112244,290
112257,281
112269,286
112282,283
112294,274
112307,272
112319,259
112331,264
112345,258
112357,268
112369,275
112381,286
112394,280
112407,277
112419,269
112432,275
112444,269
112456,265
112468,261
112482,252
112494,259
112506,257
112519,246
112531,266
112544,259
112557,254
112569,250
112581,249
112593,253
112607,260
112619,250
112631,258
112644,264
112656,258
112668,253
112681,251
112694,250
112706,253
112718,245
112731,245
112744,254
112756,256
112769,258
112781,262
112793,253
112806,248
112819,242
112831,246
112843,248
112856,246
112868,253
112881,255
112893,259
112906,252
112918,243
112930,252
112944,242
112956,240
112968,231
112980,224
112993,230
113006,232
113018,234
113031,240
113043,238
113055,237
113068,238
113081,230
113093,240
113105,254
113118,253
113130,259
113143,257
113156,250
113168,251
113180,249
113192,252
113206,251
113218,243
113230,247
113243,244
113255,235
113267,239
113281,241
113293,249
113305,250
113317,245
113330,242
113343,243
113355,235
113368,240
113380,239
113392,240
113405,243
113418,249
113430,248
113442,248
113455,252
113467,263
113480,257
113492,251
113505,244
113517,253
113529,250
113543,260
113555,249
113567,253
113580,253
113592,244
113605,239
113617,240
113630,240
113642,247
113654,244
113667,250
113680,249
113692,246
113704,245
113717,246
113729,249
113742,242
113755,245
113767,258
113779,255
113792,241
113805,242
113817,253
113829,266
113842,258
113854,246
113866,243
113880,233
113892,225
113904,234
113916,243
113929,251
113942,253
113954,276
113967,278
113979,272
113991,279
114004,274
114017,292
114029,289
114041,307
114054,312
114066,335
114079,327
114092,316
114104,314
114116,294
114128,284
114142,273
114154,272
114166,295
114179,287
114191,269
114204,266
114216,254
114229,262
114241,259
114253,258
114266,258
114279,251
114291,255
114304,264
114316,264
114328,268
114341,264
114354,253
114366,255
114378,259
114391,251
114404,248
114416,248
114428,249
114441,243
114453,236
114465,258
114479,257
114491,243
114503,242
114515,243
114528,256
114541,250
114553,245
114566,242
114578,237
114590,227
114604,241
114616,245
114628,249
114640,242
114653,240
114665,247
114678,246
114691,232
114703,243
114715,243
114727,250
114741,246
114753,242
114765,242
114778,251
114790,241
114803,254
114816,245
114828,251
114840,244
114852,250
114865,247
114878,242
114890,228
114903,237
114915,235
114927,238
114940,230
114953,228
114965,236
114977,237
114990,234
115003,242
115015,238
115027,236
115040,227
115052,237
115064,242
115078,246
115090,234
115102,245
115115,237
115127,229
115140,223
115152,231
115165,238
115177,236
115189,234
115203,241
115215,236
115227,236
115239,243
115252,245
115264,248
115277,248
115290,242
115302,246
115314,245
115326,241
115340,240
115352,241
115364,245
115377,242
115389,233
115402,241
115415,249
115427,248
115439,257
115451,251
115464,247
115477,245
115489,241
115502,248
115514,243
115526,232
115539,245
115552,241
115564,246
115576,246
115589,250
115602,262
115614,262
115627,265
115639,263
115651,259
115663,257
115677,265
115689,279
115701,274
115714,270
115726,262
115739,258
115751,252
115764,242
115776,234
115788,238
115802,273
115814,278
115826,278
115838,289
115851,290
115863,296
115876,320
115889,354
115901,359
115913,351
115926,360
115939,371
115951,327
115963,296
115976,278
115988,289
116001,281
116014,285
116026,274
116038,274
116050,272
116063,271
116076,265
116088,251
116101,242
116113,233
116125,241
116139,248
116151,253
116163,249
116175,249
116188,246
116201,255
116213,267
116226,262
116238,267
116250,265
116262,254
116276,259
116288,261
116300,263
116313,265
116325,252
116338,258
116350,246
116363,242
116375,237
116387,244
116401,242
116413,246
116425,235
116438,253
116450,249
116462,248
116475,247
116488,247
116500,247
116512,246
116525,243
116538,253
116550,255
116562,251
116575,247
116587,240
116600,240
116613,249
116625,246
116637,255
116649,258
116662,257
116675,250
116687,243
116700,251
116712,248
116724,237
116738,249
116750,249
116762,245
116774,244
116787,234
116800,249
116812,251
116825,249
116837,254
116849,247
116861,238
116875,243
116887,247
116899,248
116912,245
116924,247
116937,254
116950,248
116962,246
116974,248
116986,241
117000,239
117012,230
117024,235
117037,245
117049,249
117061,243
117074,246
117087,237
117099,230
117111,231
117124,238
117137,245
117149,241
117161,229
117174,237
117186,239
117199,236
117212,236
117224,245
117236,244
117249,241
117261,227
117274,230
117286,235
117299,233
117311,232
117323,235
117337,234
117349,233
117361,225
117373,235
117386,235
117399,230
117411,228
117424,227
117436,225
117448,221
117460,216
117474,224
117486,231
117498,224
117511,227
117523,228
117536,222
117549,226
117561,212
117573,215
117585,226
117599,222
117611,210
117623,213
117636,224
117648,252
117660,257
117673,267
117686,284
117698,308
117710,318
117723,347
117736,355
117748,378
117761,359
117773,333
117785,332
117798,328
117811,317
117823,306
117835,319
117848,298
117860,278
117873,271
117885,276
117898,260
117910,259
117922,264
117936,275
117948,275
117960,279
117972,278
117985,267
117998,251
118010,243
118023,247
118035,252
118047,246
118060,239
118073,237
118085,239
118097,233
118110,244
118122,248
118135,246
118148,239
118160,241
118172,235
118184,239
118198,234
118210,241
118222,247
118235,249
118247,240
118259,243
118273,239
118285,239
118297,230
118309,234
118322,228
118335,240
118347,245
118360,234
118372,226
118384,229
118397,216
118410,220
118422,222
118434,216
118447,219
118459,212
118472,210
118484,212
118497,209
118509,224
118521,224
118535,224
118547,219
118559,220
118572,220
118584,222
118597,220
118609,227
118622,232
118634,226
118646,223
118659,227
118672,227
118684,226
118696,223
118709,227
118721,234
118734,227
118747,221
118759,230
118771,231
118784,230
118797,219
118809,226
118821,227
118834,225
118846,221
118858,224
118872,227
118884,222
118896,211
118908,221
118921,223
118934,222
118946,228
118959,235
118971,234
118983,228
118996,220
119009,227
119021,234
119033,234
119046,230
119058,228
119071,227
119084,225
119096,222
119108,225
119120,230
119134,228
119146,224
119158,221
119171,226
119183,221
119196,222
119208,232
119221,234
119233,232
119245,238
119258,245
119271,248
119283,249
119296,252
119308,258
119320,253
119333,254
119346,246
119358,244
119370,247
119383,252
119396,250
119408,247
119420,239
119433,234
119445,229
119457,234
119471,231
119483,235
119495,246
119507,253
119520,257
119533,250
119545,269
119558,270
119570,276
119582,279
119596,280
119608,294
119620,329
119632,363
119645,339
119657,321
119670,320
119683,318
119695,313
119707,293
119719,296
119733,306
119745,320
119757,309
119770,310
119782,302
119795,301
119808,291
119820,281
119832,258
119844,266
119857,259
119870,263
119882,255
119895,258
119907,256
119919,251
119932,247
119945,248
119957,247
119969,255
119982,254
119995,258
120007,259
120019,253
120032,239
120044,232
120056,231
120070,236
120082,225
120094,229
120107,231
120119,230
120132,222
120144,226
120157,235
120169,230
120181,234
120195,232
120207,223
120219,225
120231,229
120244,235
120256,237
120269,228
120282,229
120294,230
120306,229
120318,223
120332,213
120344,221
120356,228
120369,233
120381,232
120394,234
120407,231
120419,234
120431,236
120443,249
120456,239
120469,226
120481,227
120494,232
120506,235
120518,225
120531,219
120544,219
120556,219
120568,215
120581,219
120594,221
120606,223
120619,218
120631,217
120643,218
120655,218
120669,220
120681,224
120693,228
120706,227
120718,224
120731,230
120743,230
120756,235
120768,227
120780,231
120794,230
120806,229
120818,237
120830,240
120843,240
120855,246
120868,240
120881,241
120893,238
120905,237
120918,237
120931,240
120943,239
120955,240
120968,232
120980,240
120993,237
121006,236
121018,237
121030,246
121042,240
121055,238
121068,233
121080,245
121093,253
121105,249
121117,248
121131,247
121143,244
121155,238
121167,234
121180,257
121193,259
121205,251
121218,251
121230,256
121242,257
121254,261
121268,258
121280,259
121292,254
121305,246
121317,246
121330,245
121342,245
121355,245
121367,237
121379,241
121393,243
121405,236
121417,233
121430,239
121442,239
121454,242
121467,242
121480,245
121492,255
121504,268
121517,261
121530,262
121542,269
121554,266
121567,266
121579,297
121592,292
121605,288
121617,283
121629,286
121641,319
121654,302
121667,310
121679,334
121692,327
121704,314
121716,298
121730,287
121742,278
121754,267
121766,263
121779,265
121792,252
121804,246
121817,257
121829,248
121841,237
121853,244
121867,247
121879,248
121891,252
121904,238
121916,252
121929,245
121942,235
121954,233
121966,233
121978,234
121992,233
122004,216
122016,226
122029,222
122041,222
122053,220
122066,223
122079,232
122091,231
122103,218
122116,223
122129,222
122141,219
122153,222
122166,225
122178,216
122191,215
122204,204
122216,213
122228,217
122241,221
122253,227
122266,223
122278,212
122291,213
122303,211
122315,227
122329,228
122341,225
122353,220
122365,213
122378,212
122391,214
122403,209
122416,222
122428,226
122440,221
122452,218
122466,224
122478,228
122490,230
122503,229
122515,234
122528,235
122541,234
122553,235
122565,243
122577,243
122591,241
122603,234
122615,243
122628,241
122640,237
122652,234
122665,236
122678,231
122690,232
122702,225
122715,226
122728,228
122740,234
122753,242
122765,245
122777,245
122790,252
122803,244
122815,238
122827,239
122840,236
122852,235
122865,239
122877,239
122890,236
122902,231
122914,233
122928,231
122940,230
122952,226
122964,224
122977,225
122990,226
123002,222
123015,225
123027,231
123039,232
123052,236
123065,235
123077,236
123089,243
123102,233
123114,227
123127,227
123140,222
123152,221
123164,222
123176,232
123190,234
123202,233
123214,236
123227,239
123239,233
123251,239
123265,238
123277,236
123289,239
123301,236
123314,234
123327,245
123339,244
123352,267
123364,280
123376,278
123389,293
123402,309
123414,290
123426,291
123439,281
123451,275
123464,289
123476,266
123489,262
123501,274
123513,273
123527,284
123539,256
123551,258
123564,246
123576,231
123589,234
123601,247
123614,250
123626,258
123638,241
123651,249
123664,245
123676,242
123688,248
123701,250
123713,253
123726,251
123739,239
123751,246
123763,242
123776,240
123789,238
123801,244
123813,239
123826,239
123838,236
123850,243
123864,238
123876,232
123888,227
123900,223
123913,221
123926,224
123938,223
123951,227
123963,232
123975,231
123988,224
124001,224
124013,228
124025,233
124038,225
124050,225
124063,219
124076,213
124088,215
124100,218
124112,221
124126,216
124138,208
124150,213
124163,216
124175,214
124188,222
124200,225
124213,226
124225,231
124237,230
124250,229
124263,232
124275,235
124288,237
124300,239
124312,233
124325,226
124338,229
124350,231
124362,233
124375,227
124388,225
124400,221
124412,218
124425,215
124437,219
124449,220
124463,224
124475,218
124487,221
124499,221
124512,226
124525,224
124537,225
124550,223
124562,223
124574,216
124588,224
124600,222
124612,227
124624,223
124637,226
124649,220
124662,223
124675,218
124687,223
124699,221
124711,217
124725,214
124737,213
124749,208
124762,220
124774,212
124787,213
124800,210
124812,211
124824,214
124836,219
124849,237
124862,242
124874,238
124887,237
124899,230
124911,226
124924,217
124937,225
124949,228
124961,230
124974,220
124987,234
124999,235
125011,236
125024,232
125036,227
125048,223
125062,230
125074,226
125086,238
125099,246
125111,238
125124,252
125136,259
125149,264
125161,251
125173,243
125187,264
125199,289
125211,276
125223,267
125236,275
125248,283
125261,289
125274,282
125286,272
125298,266
125310,255
125324,243
125336,241
125348,238
125361,240
125373,238
125386,248
125399,239
125411,230
125423,227
125435,219
125448,223
125461,225
125473,216
125486,219
125498,222
125510,216
125523,224
125536,239
125548,240
125560,242
125573,227
125586,227
125598,225
125611,216
125623,218
125635,225
125647,223
125661,225
125673,221
125685,227
125698,237
125710,226
125723,235
125735,229
125748,223
125760,223
125772,222
125786,226
125798,226
125810,215
125822,217
125835,217
125847,220
125860,223
125873,233
125885,233
125897,239
125910,230
125923,228
125935,233
125947,232
125960,229
125972,235
125985,232
125998,228
126010,226
126022,230
126034,234
126047,238
126060,239
126072,247
126085,240
126097,237
126109,231
126123,234
126135,238
126147,239
126159,239
126172,240
126185,236
126197,231
126210,223
126222,226
126234,230
126246,228
126260,228
126272,222
126284,218
126297,227
126309,223
126322,228
126334,229
126347,226
126359,223
126371,223
126385,229
126397,242
126409,239
126422,232
126434,234
126446,232
126459,233
126472,235
126484,238
126496,231
126509,227
126522,237
126534,230
126546,222
126559,221
126571,224
126584,229
126597,229
126609,227
126621,232
126633,238
126646,230
126659,230
126671,234
126684,243
126696,243
126708,245
126722,250
126734,245
126746,245
126758,253
126771,245
126784,251
126796,245
126809,228
126821,228
126833,231
126845,230
126859,235
126871,239
126883,244
126896,246
126908,245
126921,243
126934,250
126946,238
126958,240
126970,248
126984,249
126996,246
127008,245
127021,258
127033,263
127045,253
127058,243
127071,248
127083,252
127095,265
127108,283
127121,285
127133,284
127145,266
127158,260
127170,267
127183,276
127196,254
127208,265
127220,272
127233,265
127245,250
127258,247
127270,242
127283,232
127295,230
127307,224
127321,223
127333,224
127345,216
127357,224
127370,222
127383,225
127395,237
127408,236
127420,233
127432,241
127444,220
127458,221
127470,225
127482,225
127495,231
127507,231
127520,232
127533,235
127545,228
127557,231
127569,230
127583,222
127595,219
127607,226
127620,225
127632,224
127644,220
127657,224
127670,229
127682,220
127694,225
127707,228
127720,223
127732,229
127745,234
127757,234
127769,236
127782,229
127795,232
127807,233
127819,231
127832,234
127844,228
127857,232
127869,227
127882,223
127894,218
127906,218
127920,226
127932,231
127944,225
127956,230
127969,230
127982,223
127994,222
128007,232
128019,231
128031,235
128044,229
128057,228
128069,224
128081,217
128094,223
128106,229
128119,231
128132,229
128144,223
128156,223
128168,222
128182,217
128194,224
128206,224
128219,222
128231,219
128243,220
128257,221
128269,225
128281,218
128293,223
128306,222
128319,212
128331,213
128344,218
128356,215
128368,219
128381,213
128394,218
128406,220
128418,225
128431,229
128443,226
128456,221
128468,227
128481,218
128493,224
128505,231
128519,232
128531,229
128543,235
128556,233
128568,239
128581,232
128593,239
128606,248
128618,249
128630,250
128643,248
128656,249
128668,250
128680,235
128693,235
128705,239
128718,253
128731,247
128743,248
128755,243
128768,245
128781,235
128793,239
128805,241
128818,242
128830,233
128842,243
128856,243
128868,241
128880,233
128892,228
128905,236
128918,227
128930,235
128943,252
128955,259
128967,293
128980,309
128993,321
129005,336
129017,343
129030,331
129042,313
129055,307
129068,285
129080,276
129092,276
129104,273
129118,256
129130,256
129142,249
129155,243
129167,244
129180,239
129192,248
129205,241
129217,230
129229,237
129242,242
129255,252
129267,248
129280,250
129292,253
129304,251
129317,241
129330,235
129342,242
129354,250
129367,250
129380,245
129392,246
129404,253
129417,243
129429,247
129441,253
129455,252
129467,248
129479,242
129491,236
129504,243
129517,234
129529,245
129542,248
129554,248
129566,244
129580,246
129592,244
129604,243
129616,231
129629,244
129641,239
129654,234
129667,232
129679,236
129691,230
129703,234
129717,233
129729,245
129741,249
129754,245
129766,242
129779,245
129792,238
129804,244
129816,240
129828,248
129841,251
129854,245
129866,242
129879,248
129891,246
129903,251
129916,244
129929,258
129941,254
129953,248
129966,239
129979,247
129991,242
130003,243
130016,239
130028,247
130040,243
130054,236
130066,227
130078,235
130091,242
130103,246
130116,233
130128,239
130141,241
130153,238
130165,237
130179,243
130191,240
130203,237
130215,229
130228,231
130240,234
130253,233
130266,235
130278,241
130290,239
130302,233
130316,228
130328,234
130340,234
130353,232
130365,232
130378,234
130391,236
130403,233
130415,230
130427,232
130440,238
130453,238
130465,240
130478,237
130490,236
130502,234
130515,233
130528,235
130540,246
130552,245
130565,243
130578,244
130590,239
130603,235
130615,230
130627,229
130639,238
130653,237
130665,241
130677,242
130690,251
130702,268
130715,287
130727,274
130740,281
130752,306
130764,293
130778,293
130790,292
130802,281
130814,288
130827,296
130839,294
130852,279
130865,274
130877,263
130889,255
130902,244
130915,230
130927,219
130939,230
130952,225
130964,240
130977,240
130990,239
131002,236
131014,244
131026,242
131039,245
131052,240
131064,238
131077,242
131089,240
131101,243
131115,252
131127,247
131139,243
131151,231
131164,233
131177,231
131189,225
131202,223
131214,226
131226,222
131238,231
131252,223
131264,240
131276,242
131289,232
131301,233
131314,241
131326,238
131339,245
131351,239
131363,249
131377,250
131389,239
131401,234
131414,235
131426,230
131438,232
131451,228
131464,234
131476,231
131488,226
131501,231
131514,235
131526,230
131538,231
131551,230
131563,235
131576,230
131589,226
131601,232
131613,238
131625,236
131638,230
131651,227
131663,236
131676,234
131688,235
131700,241
131714,236
131726,234
131738,236
131750,238
131763,241
131776,243
131788,234
131801,243
131813,245
131825,244
131837,245
131851,237
131863,232
131875,234
131888,231
131900,236
131913,237
131926,240
131938,233
131950,232
131962,233
131976,240
131988,237
132000,241
132013,240
132025,238
132037,233
132050,230
132063,234
132075,235
132087,232
132100,240
132113,240
132125,234
132137,231
132150,234
132162,241
132175,246
132188,235
132200,245
132212,238
132225,239
132237,234
132250,235
132262,233
132275,231
132287,220
132299,228
132313,231
132325,229
132337,232
132349,237
132362,226
132375,226
132387,220
132400,232
132412,234
132424,239
132436,236
132450,232
132462,227
132474,231
132487,226
132499,234
132512,232
132525,229
132537,223
132549,227
132561,227
132575,229
132587,226
132599,236
132612,243
132624,241
132636,243
132649,248
132662,253
132674,247
132686,257
132699,257
132712,273
132724,275
132737,267
132749,267
132761,282
132774,272
132787,267
132799,270
132811,267
132824,260
132836,258
132849,251
132861,239
132874,236
132886,239
132898,234
132912,238
132924,242
132936,248
132948,254
132961,260
132974,256
132986,253
132999,252
133011,252
133023,246
133036,252
133049,242
133061,238
133073,240
133086,235
133098,229
133111,229
133124,217
133136,218
133148,222
133160,226
133174,225
133186,223
133198,228
133211,229
133223,228
133235,229
133249,239
133261,242
133273,239
133285,239
133298,234
133311,234
133323,223
133336,226
133348,227
133360,226
133373,224
133386,226
133398,229
133410,231
133423,230
133435,237
133448,242
133460,243
133473,244
133485,248
133497,239
133511,244
133523,241
133535,253
133548,250
133560,250
133573,240
133585,246
133598,243
133610,245
133622,238
133635,252
133648,248
133660,236
133672,224
133685,233
133697,232
133710,236
133723,229
133735,231
133747,229
133760,224
133773,223
133785,236
133797,233
133810,240
133822,231
133834,241
133848,237
133860,233
133872,230
133884,235
133897,234
133910,239
133922,235
133935,240
133947,238
133959,235
133972,238
133985,244
133997,242
134009,239
134022,230
134034,233
134047,239
134060,237
134072,239
134084,239
134096,233
134110,228
134122,227
134134,233
134147,240
134159,236
134172,236
134184,239
134197,235
134209,233
134221,238
134234,244
134247,250
134259,241
134272,245
134284,246
134296,247
134309,249
134322,253
134334,250
134346,247
134359,233
134372,237
134384,233
134396,232
134409,233
134421,240
134433,246
134447,267
134459,264
134471,297
134483,296
134496,291
134509,290
134521,275
134534,294
134546,284
134558,280
134572,287
134584,283
134596,274
134608,274
134621,280
134633,267
134646,272
134659,248
134671,239
134683,230
134695,227
134709,223
134721,229
134733,237
134746,239
134758,224
134771,225
134784,227
134796,232
134808,228
134820,233
134833,225
134846,222
134858,221
134871,234
134883,233
134895,241
134908,239
134921,235
134933,225
134945,231
134958,223
134971,233
134983,229
134995,229
135008,228
135020,228
135032,223
135046,223
135058,215
135070,224
135083,230
135095,228
135108,235
135120,239
135133,240
135145,234
135157,224
135171,224
135183,223
135195,209
135207,204
135220,208
135232,214
135245,217
135258,213
135270,221
135282,214
135294,215
135308,215
135320,215
135332,214
135345,215
135357,214
135370,214
135383,217
135395,216
135407,224
135419,229
135432,227
135445,220
135457,224
135470,228
135482,228
135494,225
135507,223
135520,220
135532,219
135544,221
135557,223
135570,224
135582,221
135595,210
135607,214
135619,213
135631,217
135645,216
135657,218
135669,222
135682,228
135694,218
135707,220
135719,222
135732,224
135744,225
135756,225
135770,219
135782,220
135794,220
135806,225
135819,228
135831,225
135844,225
135857,232
135869,231
135881,235
135894,232
135907,227
135919,231
135931,231
135944,230
135956,228
135969,227
135982,227
135994,218
136006,225
136018,229
136031,234
136044,237
136056,240
136069,238
136081,239
136093,233
136107,236
136119,238
136131,241
136143,233
136156,232
136169,228
136181,230
136194,229
136206,236
136218,237
136230,235
136244,232
136256,232
136268,229
136281,234
136293,225
136306,233
136318,239
136331,235
136343,233
136355,241
136369,251
136381,256
136393,251
136406,259
136418,255
136430,253
136443,244
136456,237
136468,229
136480,232
136493,234
136506,244
136518,239
136530,234
136543,226
136555,222
136568,226
136581,228
136593,222
136605,222
136617,222
136630,215
136643,217
136655,223
136668,221
136680,218
136692,215
136706,214
136718,212
136730,206
136742,208
136755,209
136768,206
136780,200
136793,193
136805,191
136817,196
136829,191
136843,193
136855,189
136867,191
136880,187
136892,188
136905,190
136918,195
136930,197
136942,202
136954,199
136968,196
136980,188
