0,193
1,194
2,194
4,195
5,196
6,195
7,195
9,195
10,196
11,200
13,203
16,206
24,216
32,212
40,217
49,219
58,224
66,217
74,212
82,205
91,205
99,202
107,204
117,205
126,206
136,215
145,211
154,208
163,208
173,204
182,204
192,198
201,195
210,192
220,194
229,196
238,197
247,196
258,202
267,200
276,203
285,207
294,209
304,203
313,205
323,206
332,206
342,210
351,206
360,209
369,217
378,214
389,214
398,212
407,213
416,212
425,210
435,221
444,223
454,229
463,240
473,232
482,228
491,219
500,214
509,212
520,208
529,212
538,215
547,215
557,216
566,212
575,214
585,209
594,216
604,217
613,224
622,222
631,224
641,219
651,210
660,207
669,200
678,198
688,197
697,199
706,206
716,214
726,219
735,226
744,220
753,219
762,214
772,213
781,213
791,212
800,215
809,217
819,218
828,218
837,213
846,215
857,213
866,214
875,214
884,211
893,209
903,208
912,211
922,208
931,211
941,204
950,203
959,205
968,211
977,212
988,206
997,207
1006,211
1016,220
1027,228
1037,234
1047,238
1058,242
1069,238
1079,241
1089,236
1099,229
1110,225
1121,225
1131,226
1141,226
1152,224
1162,223
1172,222
1183,221
1193,221
1204,220
1214,218
1224,211
1234,214
1245,212
1256,209
1266,207
1276,206
1287,208
1297,207
1307,210
1318,214
1329,214
1339,211
1349,208
1359,206
1370,204
1380,206
1391,216
1401,225
1412,232
1422,239
1432,236
1442,231
1454,227
1464,229
1474,228
1484,230
1495,232
1505,229
1516,230
1526,232
1537,229
1547,227
1557,222
1567,218
1577,214
1589,208
1599,207
1609,208
1619,217
1630,227
1640,227
1651,225
1661,218
1672,211
1682,208
1692,211
1702,213
1713,212
1724,212
1734,213
1744,206
1755,207
1765,214
1775,216
1786,214
1797,217
1807,219
1817,221
1827,219
1838,223
1849,226
1859,219
1869,210
1880,212
1890,217
1900,228
1910,230
1922,236
1932,244
1942,259
1952,255
1963,256
1973,253
1984,263
1994,257
2004,257
2015,258
2025,280
2035,281
2045,269
2057,267
2067,273
2077,284
2087,277
2098,286
2108,284
2119,289
2129,280
2140,287
2150,284
2160,280
2170,270
2182,266
2192,264
2202,258
2212,257
2223,267
2233,270
2243,269
2254,262
2265,261
2275,258
2285,258
2295,252
2306,248
2317,242
2327,247
2337,247
2348,244
2358,242
2368,234
2378,235
2390,240
2400,239
2410,245
2420,246
2430,252
2441,245
2452,246
2462,248
2472,238
2483,243
2493,246
2503,247
2514,249
2525,271
2535,289
2545,296
2555,351
2566,339
2576,346
2587,347
2597,333
2608,309
2618,305
2628,305
2638,308
2650,295
2660,284
2670,287
2680,287
2691,301
2701,290
2711,275
2722,268
2733,255
2743,267
2753,268
2763,262
2774,257
2785,250
2795,256
2805,244
2816,250
2826,250
2836,252
2847,250
2857,253
2868,248
2878,246
2888,242
2898,239
2909,238
2920,245
2930,236
2940,240
2951,237
2961,229
2971,220
2982,235
2993,236
3003,238
3013,244
3023,240
3034,239
3044,228
3055,225
3065,218
3076,221
3086,220
3096,227
3106,233
3118,240
3128,239
3138,238
3148,229
3159,234
3169,230
3180,237
3190,230
3201,235
3211,232
3221,238
3231,235
3241,232
3253,229
3263,234
3273,238
3283,238
3294,237
3304,230
3315,234
3325,231
3336,233
3346,234
3356,240
3366,242
3377,239
3388,241
3398,242
3408,241
3419,240
3429,240
3439,241
3450,246
3461,249
3471,242
3481,234
3491,240
3502,242
3513,242
3523,240
3533,241
3544,240
3554,239
3564,237
3574,235
3586,233
3596,234
3606,235
3616,239
3627,236
3637,240
3648,237
3658,236
3668,230
3679,233
3689,233
3699,239
3709,240
3721,241
3731,239
3741,240
3751,234
3762,229
3772,231
3783,231
3793,240
3804,240
3814,237
3824,235
3834,233
3846,233
3856,231
3866,232
3876,242
3887,259
3897,268
3907,271
3918,289
3929,286
3939,291
3949,281
3959,265
3970,262
3981,261
3991,260
4001,252
4012,263
4022,263
4032,268
4042,274
4054,273
4064,269
4074,268
4084,267
4094,273
4105,274
4116,279
4126,274
4136,278
4147,275
4157,283
4167,282
4178,278
4189,275
4199,265
4209,258
4219,274
4230,276
4240,276
4251,273
4261,269
4272,265
4282,262
4292,258
4302,257
4314,261
4324,262
4334,260
4344,261
4355,260
4365,253
4375,258
4386,258
4397,260
4407,273
4417,291
4427,287
4438,296
4449,342
4459,335
4469,325
4480,309
4490,298
4500,299
4511,292
4521,289
4532,279
4542,268
4552,259
4562,254
4573,252
4584,254
4594,276
4604,264
4615,256
4625,247
4635,242
4646,236
4657,231
4667,226
4677,220
4687,215
4698,213
4708,221
4719,224
4729,228
4740,228
4750,228
4760,226
4770,225
4782,218
4792,219
4802,220
4812,218
4823,213
4833,210
4844,207
4854,206
4865,200
4875,205
4885,211
4895,218
4905,219
4917,215
4927,209
4937,215
4947,216
4958,216
4968,218
4979,220
4989,226
5000,223
5010,225
5020,224
5030,227
5041,228
5052,231
5062,224
5072,219
5083,219
5093,215
5103,212
5114,215
5125,221
5135,227
5145,222
5155,213
5166,213
5177,211
5187,211
5197,211
5208,221
5218,225
5228,236
5238,237
5250,231
5260,227
5270,227
5280,222
5291,228
5301,229
5312,234
5322,230
5332,224
5343,226
5353,222
5363,218
5373,216
5385,219
5395,225
5405,228
5415,223
5426,216
5436,212
5447,210
5457,206
5468,206
5478,208
5488,210
5498,218
5510,223
5520,221
5530,218
5540,214
5551,212
5561,212
5571,219
5582,228
5593,237
5603,233
5613,231
5623,235
5634,233
5645,225
5655,219
5665,224
5676,226
5686,236
5696,240
5706,235
5718,230
5728,227
5738,224
5748,233
5758,237
5769,242
5780,238
5790,234
5800,227
5811,223
5821,225
5831,235
5842,243
5853,240
5863,232
5873,231
5883,231
5894,227
5904,229
5915,231
5925,231
5936,232
5946,226
5956,224
5966,223
5978,223
5988,226
5998,225
6008,222
6019,222
6029,219
6039,213
6050,214
6061,216
6071,220
6081,220
6091,216
6102,214
6113,216
6123,213
6133,213
6144,217
6154,219
6164,224
6175,220
6185,217
6196,220
6206,223
6216,223
6226,223
6237,219
6248,224
6258,223
6268,219
6279,214
6289,219
6299,223
6310,227
6321,225
6331,223
6341,227
6351,227
6362,220
6372,220
6383,224
6393,226
6404,228
6414,225
6424,225
6434,220
6446,220
6456,219
6466,221
6476,221
6487,227
6497,228
6508,225
6518,219
6529,229
6539,233
6549,244
6559,245
6569,274
6581,278
6591,266
6601,266
6611,255
6622,251
6632,267
6643,270
6653,268
6664,280
6674,286
6684,276
6694,262
6705,254
6716,249
6726,249
6736,245
6747,255
6757,258
6767,264
6778,258
6789,255
6799,255
6809,254
6819,247
6830,236
6841,229
6851,226
6861,226
6872,225
6882,232
6892,236
6902,240
6914,248
6924,246
6934,234
6944,232
6955,229
6965,229
6976,225
6986,230
6996,223
7007,224
7017,224
7027,230
7037,232
7049,243
7059,249
7069,245
7079,245
7090,240
7100,231
7111,225
7121,227
7132,225
7142,226
7152,223
7162,228
7174,228
7184,229
7194,223
7204,222
7215,224
7225,227
7235,222
7246,225
7257,224
7267,225
7277,223
7287,223
7298,230
7309,235
7319,236
7329,236
7340,234
7350,227
7360,224
7370,227
7382,230
7392,231
7402,232
7412,238
7422,233
7433,228
7444,224
7454,221
7464,223
7475,223
7485,225
7495,230
7506,238
7517,236
7527,234
7537,232
7547,233
7558,231
7568,234
7579,236
7589,233
7600,236
7610,232
7620,232
7630,231
7642,231
7652,232
7662,232
7672,228
7683,231
7693,227
7703,226
7714,224
7725,225
7735,228
7745,237
7755,241
7766,240
7777,238
7787,236
7797,230
7808,226
7818,230
7828,228
7839,239
7849,234
7860,241
7870,234
7880,231
7890,226
7901,225
7912,222
7922,221
7932,224
7943,228
7953,221
7963,216
7974,216
7985,227
7995,229
8005,234
8015,234
8026,234
8036,229
8047,226
8057,227
8068,229
8078,237
8088,238
8098,235
8110,241
8120,249
8130,248
8140,240
8151,232
8161,223
8172,216
8182,210
8193,207
8203,201
8213,194
8223,188
8233,183
8245,179
8255,179
8265,172
8275,174
8286,174
8296,172
8307,167
8317,172
8328,171
8338,174
8348,180
8358,182
8369,177
8380,177
8390,173
8400,177
8411,182
8421,193
8431,201
8442,209
8453,220
8463,231
8473,237
8483,240
8494,237
8505,236
8515,231
8525,236
8536,251
8546,251
8556,249
8566,238
8578,244
8588,239
8598,231
8608,220
8619,236
8629,250
8640,243
8650,252
8660,271
8671,261
8681,257
8691,258
8701,260
8713,251
8723,250
8733,249
8743,250
8754,239
8764,235
8775,238
8785,231
8796,234
8806,231
8816,237
8826,238
8838,234
8848,228
8858,233
8868,235
8879,236
8889,233
8899,237
8910,230
8921,233
8931,224
8941,222
8951,231
8962,238
8973,236
8983,234
8993,223
9004,219
9014,220
9024,218
9034,218
9046,215
9056,220
9066,220
9076,215
9086,211
9097,213
9108,210
9118,212
9128,209
9139,213
9149,210
9159,221
9170,222
9181,222
9191,217
9201,223
9211,222
9222,222
9232,226
9243,221
9253,229
9264,233
9274,231
9284,229
9294,225
9306,229
9316,233
9326,233
9336,236
9347,234
9357,233
9367,225
9378,223
9389,223
9399,228
9409,230
9419,232
9430,233
9441,235
9451,237
9461,235
9472,225
9482,217
9492,224
9503,222
9513,230
9524,226
9534,226
9544,228
9554,230
9565,225
9576,226
9586,229
9596,234
9607,231
9617,232
9627,229
9638,227
9649,228
9659,226
9669,223
9679,226
9690,225
9700,223
9711,219
9721,217
9732,219
9742,224
9752,231
9762,227
9774,232
9784,240
9794,243
9804,238
9815,243
9825,236
9836,234
9846,229
9857,227
9867,223
9877,219
9887,225
9897,229
9909,227
9919,227
9929,227
9939,228
9950,233
9960,237
9971,240
9981,237
9992,240
10002,232
10013,232
10024,225
10037,225
10048,235
10059,231
10071,238
10082,240
10093,238
10105,243
10117,248
10128,252
10139,248
10150,253
10162,249
10174,246
10185,244
10196,247
10208,254
10219,248
10230,250
10243,252
10254,251
10265,252
10276,253
10288,253
10299,250
10311,250
10322,251
10334,243
10345,248
10356,256
10369,255
10380,249
10391,247
10402,254
10414,258
10425,265
10437,286
10448,276
10460,288
10471,279
10482,283
10493,298
10506,301
10517,294
10528,315
10540,304
10551,314
10562,295
10574,289
10586,276
10597,258
10608,275
10619,292
10631,295
10643,287
10654,275
10665,267
10677,270
10688,262
10700,252
10712,245
10723,242
10734,242
10745,239
10757,244
10769,238
10780,237
10791,242
10803,234
10814,238
10825,250
10838,247
10849,243
10860,228
10871,231
10883,229
10894,230
10906,228
10917,219
10929,226
10940,229
10951,228
10962,231
10975,237
10986,232
10997,230
11009,224
11020,213
11031,206
11043,209
11055,217
11066,218
11077,221
11088,221
11101,211
11112,215
11123,220
11134,223
11146,224
11157,222
11169,220
11181,220
11192,223
11203,225
11214,230
11226,231
11238,226
11249,227
11260,224
11272,229
11283,234
11294,236
11307,236
11318,235
11329,229
11340,223
11352,230
11363,233
11375,237
11386,239
11398,239
11409,237
11420,227
11431,236
11444,243
11455,241
11466,251
11478,243
11489,237
11501,228
11512,228
11524,226
11535,223
11546,221
11557,218
11570,217
11581,211
11592,218
11603,213
11615,209
11626,221
11638,226
11650,227
11661,227
11672,220
11683,223
11695,220
11707,217
11718,216
11729,212
11741,212
11752,219
11763,222
11776,221
11787,222
11798,222
11809,218
11821,218
11833,221
11844,224
11855,223
11867,225
11878,218
11889,219
11901,229
11913,234
11924,235
11935,241
11947,243
11958,232
11970,239
11981,249
11993,255
12004,238
12015,258
12026,250
12039,253
12050,239
12061,238
12072,238
12084,235
12095,242
12107,244
12119,240
12130,242
12141,237
12152,230
12165,241
12176,243
12187,248
12198,248
12210,256
12221,256
12233,254
12244,263
12256,266
12267,268
12278,276
12290,295
12302,294
12313,286
12324,270
12336,262
12347,263
12358,276
12370,276
12382,271
12393,270
12404,290
12416,363
12427,383
12439,383
12450,396
12462,406
12473,395
12484,423
12495,396
12508,378
12519,396
12530,365
12541,400
12553,383
12565,376
12576,378
12588,366
12599,396
12610,390
12621,368
12634,339
12645,322
12656,294
12667,283
12679,282
12690,277
12702,269
12713,260
12725,255
12736,246
12747,249
12759,244
12771,245
12782,250
12793,240
12805,239
12816,235
12827,236
12839,229
12851,228
12862,234
12873,224
12884,224
12897,219
12908,221
12919,224
12931,216
12942,219
12953,221
12965,222
12977,218
12988,227
12999,225
13010,221
13022,222
13034,209
13045,214
13057,222
13068,219
13079,217
13090,212
13103,213
13114,208
13125,211
13136,215
13148,216
13159,217
13171,221
13182,230
13194,228
13205,227
13216,226
13228,225
13240,230
13251,227
13262,226
13274,220
13285,224
13297,228
13308,223
13320,227
13331,231
13342,230
13353,228
13366,223
13377,224
13388,228
13400,237
13411,236
13422,232
13434,227
13446,223
13457,224
13468,221
13479,228
13491,225
13503,231
13514,231
13526,228
13537,222
13548,219
13559,219
13572,219
13583,218
13594,226
13605,233
13617,236
13628,234
13640,231
13651,223
13663,220
13674,221
13685,223
13698,223
13709,220
13720,215
13731,212
13743,220
13754,223
13766,219
13777,221
13789,219
13800,220
13811,211
13822,221
13835,227
13846,232
13857,230
13869,228
13880,234
13891,221
13903,219
13915,222
13926,228
13937,234
13948,245
13960,253
13972,255
13983,250
13995,242
14006,251
14017,255
14029,247
14041,239
14052,242
14063,243
14074,247
14086,245
14098,241
14109,240
14120,237
14132,233
14143,228
14154,230
14167,235
14178,242
14189,235
14200,236
14212,238
14223,235
14235,236
14246,229
14258,224
14269,224
14280,225
14291,220
14304,208
14315,208
14326,209
14338,210
14349,211
14360,212
14372,208
14384,221
14395,230
14406,254
14417,258
14430,270
14441,290
14452,296
14464,291
14475,312
14486,328
14498,322
14510,329
14521,319
14532,322
14543,322
14555,312
14567,289
14578,279
14589,319
14601,331
14612,327
14623,305
14636,302
14647,290
14658,282
14669,292
14681,293
14692,285
14704,283
14715,270
14727,257
14738,251
14749,250
14761,252
14773,249
14784,246
14795,235
14807,222
14818,217
14830,220
14841,226
14853,227
14864,226
14875,222
14886,212
14899,208
14910,204
14921,209
14932,211
14944,215
14955,218
14967,212
14979,207
14990,206
15001,201
15012,202
15024,206
15036,209
15047,204
15058,208
15070,211
15081,210
15093,214
15105,210
15116,212
15127,210
15138,218
15150,217
15162,209
15173,215
15184,214
15196,209
15207,204
15218,213
15230,212
15242,209
15253,217
15264,217
15276,215
15287,211
15299,216
15310,220
15322,214
15333,214
15344,214
15355,205
15368,207
15379,218
15390,222
15401,221
15413,224
15424,215
15436,207
15448,211
15459,220
15470,226
15481,228
15494,229
15505,220
15516,218
15527,218
15539,216
15550,220
15562,223
15574,225
15585,220
15596,211
15607,206
15619,207
15631,210
15642,212
15653,217
15665,223
15676,226
15687,224
15699,217
15711,217
15722,217
15733,218
15745,212
15756,216
15768,213
15779,205
15791,206
15802,207
15813,209
15824,203
15837,209
15848,214
15859,206
15870,206
15882,202
15894,205
15905,212
15917,216
15928,219
15939,220
15950,214
15963,207
15974,208
15985,203
15996,202
16008,200
16019,198
16031,206
16043,203
16054,203
16065,208
16076,220
16088,228
16100,228
16111,232
16122,229
16134,229
16145,232
16156,236
16168,241
16180,248
16191,243
16202,236
16214,236
16226,237
16237,235
16248,236
16260,234
16271,229
16282,233
16294,227
16306,230
16317,232
16328,232
16339,232
16351,227
16363,221
16374,221
16386,225
16397,223
16408,231
16419,229
16432,224
16443,227
16454,234
16465,234
16477,229
16488,226
16500,230
16512,232
16523,232
16534,244
16545,238
16558,241
16569,254
16580,270
16591,278
16603,285
16614,293
16626,300
16637,307
16649,355
16660,346
16671,349
16683,356
16695,351
16706,350
16717,351
16729,353
16740,354
16751,333
16763,314
16775,301
16786,306
16797,298
16808,283
16820,273
16832,269
16843,263
16855,258
16866,256
16877,241
16888,247
16901,242
16912,253
16923,245
16934,237
16946,245
16958,238
16969,232
16980,230
16992,230
17003,228
17014,224
17027,230
17038,222
17049,224
17060,211
17072,223
17083,216
17095,208
17106,212
17118,203
17129,204
17140,199
17152,209
17164,216
17175,219
17186,220
17198,213
17209,211
17220,215
17232,220
17244,217
17255,220
17266,231
17277,218
17290,210
17301,217
17312,223
17324,229
17335,237
17346,235
17358,234
17370,233
17381,228
17392,226
17403,227
17415,231
17427,231
17438,231
17449,236
17461,237
17472,235
17483,239
17496,242
17507,243
17518,234
17529,237
17541,245
17552,242
17564,227
17575,224
17587,230
17598,227
17609,243
17620,238
17633,227
17644,224
17655,223
17667,219
17678,211
17690,220
17701,222
17713,214
17724,218
17735,219
17746,222
17759,222
17770,219
17781,219
17793,222
17804,231
17815,228
17827,229
17839,230
17850,241
17861,234
17872,229
17884,226
17896,217
17907,217
17918,228
17930,228
17941,222
17952,218
17965,220
17976,211
17987,222
17998,232
18010,236
18022,236
18033,235
18044,232
18056,229
18067,230
18078,239
18091,245
18102,243
18113,230
18124,232
18136,229
18147,237
18159,244
18170,245
18182,250
18193,246
18204,244
18215,236
18228,231
18239,229
18250,228
18262,236
18273,239
18284,231
18296,226
18308,233
18319,228
18330,225
18341,232
18353,230
18365,233
18376,224
18387,226
18399,233
18410,242
18422,246
18434,238
18445,234
18456,231
18467,240
18479,264
18491,289
18502,278
18513,281
18525,279
18536,271
18547,259
18560,250
18571,273
18582,260
18593,259
18605,265
18616,254
18628,260
18639,264
18651,273
18662,271
18673,274
18684,279
18697,277
18708,279
18719,284
18731,291
18742,291
18753,266
18765,270
18777,275
18788,271
18799,265
18810,261
18823,263
18834,249
18845,256
18856,262
18868,254
18879,256
18891,244
18903,246
18914,239
18925,246
18936,239
18948,224
18960,229
18971,232
18982,232
18994,235
19005,240
19016,235
19028,235
19040,237
19051,232
19062,230
19074,231
19085,234
19097,230
19108,222
19120,222
19131,219
19142,222
19154,233
19166,239
19177,244
19188,247
19200,241
19211,236
19223,236
19234,251
19246,254
19257,255
19268,253
19279,248
19292,239
19303,240
19314,240
19325,235
19337,233
19348,230
19360,230
19372,229
19383,236
19394,241
19405,236
19417,237
19429,231
19440,227
19451,221
19463,223
19474,226
19485,228
19497,230
19509,226
19520,218
19531,214
19543,214
19555,214
19566,212
19577,220
19589,223
19600,225
19611,221
19623,217
19635,213
19646,206
19657,217
19668,225
19680,236
19692,237
19703,242
19715,240
19726,232
19737,233
19748,226
19761,228
19772,232
19783,232
19794,230
19806,226
19817,220
19829,216
19841,213
19852,217
19863,229
19874,228
19887,225
19898,223
19909,216
19920,209
19932,217
19943,224
19955,229
19966,238
19978,242
19989,232
20000,231
20012,231
20024,229
20035,235
20046,232
20058,235
20069,236
20080,230
20092,228
20104,221
20115,227
20126,231
20137,228
20149,224
20161,232
20172,234
20184,231
20195,236
20206,234
20218,228
20230,223
20241,230
20252,228
20263,229
20275,230
20287,229
20298,234
20310,226
20321,223
20332,218
20343,219
20356,234
20367,235
20378,232
20389,239
20401,246
20412,233
20424,245
20435,250
20447,248
20458,236
20469,244
20481,252
20493,240
20504,259
20515,252
20527,258
20538,257
20549,253
20561,255
20573,265
20584,285
20595,263
20606,258
20619,265
20630,313
20641,303
20653,296
20664,291
20675,288
20687,284
20699,263
20710,258
20721,243
20732,240
20744,246
20756,259
20767,250
20779,250
20790,243
20801,241
20812,240
20825,227
20836,231
20847,230
20858,236
20870,232
20881,223
20893,227
20904,228
20916,229
20927,227
20938,225
20950,216
20962,213
20973,217
20984,221
20996,225
21007,229
21019,223
21030,213
21042,213
21053,222
21064,227
21075,232
21088,231
21099,224
21110,218
21122,216
21133,215
21144,209
21156,220
21168,238
21179,241
21190,238
21201,240
21213,234
21225,229
21236,236
21248,245
21259,235
21270,232
21281,226
21294,227
21305,219
21316,226
21327,222
21339,218
21351,216
21362,209
21373,211
21385,213
21396,223
21407,218
21420,219
21431,221
21442,219
21453,216
21465,217
21476,227
21488,228
21499,232
21511,235
21522,237
21533,230
21544,229
21557,233
21568,231
21579,231
21591,231
21602,232
21613,227
21625,231
21637,236
21648,226
21659,225
21670,228
21682,234
21694,232
21705,233
21716,231
21728,230
21739,228
21751,227
21763,217
21774,219
21785,227
21796,231
21808,233
21820,227
21831,228
21842,222
21854,232
21865,238
21876,240
21889,237
21900,227
21911,222
21922,220
21934,223
21945,231
21957,234
21968,236
21980,230
21991,220
22002,215
22013,222
22026,228
22037,227
22048,235
22060,235
22071,233
22083,228
22094,233
22106,228
22117,225
22128,225
22139,220
22152,227
22163,231
22174,242
22185,252
22197,257
22208,254
22220,246
22232,236
22243,244
22254,260
22265,265
22277,329
22289,378
22300,404
22311,417
22323,416
22334,480
22345,466
22358,449
22369,415
22380,382
22391,376
22403,350
22414,341
22426,304
22437,293
22449,278
22460,257
22471,268
22483,262
22495,251
22506,245
22517,240
22529,246
22540,234
22552,238
22563,246
22575,243
22586,243
22597,237
22608,234
22621,228
22632,236
22643,240
22654,249
22666,253
22677,246
22689,233
22701,224
22712,228
22723,227
22734,227
22746,231
22758,236
22769,238
22780,227
22792,233
22803,228
22815,223
22827,224
22838,221
22849,228
22860,225
22872,220
22884,215
22895,224
22906,230
22918,228
22929,228
22940,225
22952,225
22964,219
22975,223
22986,225
22998,221
23009,220
23021,221
23032,216
23044,224
23055,232
23066,239
23077,242
23090,248
23101,256
23112,252
23123,244
23135,244
23147,241
23158,236
23170,241
23181,251
23192,252
23203,267
23216,264
23227,256
23238,247
23249,247
23261,242
23272,234
23284,239
23296,238
23307,236
23318,233
23329,236
23341,232
23353,230
23364,236
23375,236
23387,238
23398,233
23409,229
23421,227
23433,225
23444,222
23455,215
23467,213
23478,218
23490,223
23501,221
23513,222
23524,221
23535,212
23547,209
23559,215
23570,220
23581,224
23592,222
23604,220
23616,211
23627,209
23639,215
23650,225
23661,231
23672,237
23685,234
23696,227
23707,225
23718,222
23730,221
23741,235
23753,247
23764,247
23776,238
23787,236
23798,236
23810,235
23822,236
23833,233
23844,233
23856,228
23867,227
23879,217
23890,220
23902,231
23913,227
23924,227
23936,228
23948,234
23959,230
23970,225
23982,235
23993,234
24004,236
24016,234
24028,236
24039,233
24050,229
24061,225
24073,221
24085,219
24096,219
24108,227
24119,228
24130,222
24141,223
24154,221
24165,226
24176,233
24187,234
24199,240
24210,236
24222,242
24233,281
24245,290
24256,290
24267,304
24280,306
24291,300
24302,340
24313,354
24325,342
24336,320
24348,326
24359,335
24371,318
24382,316
24393,301
24404,298
24417,287
24428,273
24439,268
24451,279
24462,286
24473,275
24485,273
24497,260
24508,244
24519,238
24530,248
24542,256
24554,251
24565,249
24577,246
24588,249
24599,245
24611,229
24623,223
24634,224
24645,235
24656,238
24668,241
24680,239
24691,242
24702,239
24714,241
24725,246
24736,246
24749,246
24760,244
24771,236
24782,237
24794,232
24805,238
24817,243
24828,237
24840,233
24851,235
24862,228
24873,220
24886,223
24897,237
24908,243
24920,245
24931,241
24942,239
24954,239
24966,236
24977,234
24988,231
24999,225
25012,222
25023,223
25034,225
25046,227
25057,230
25068,230
25080,221
25092,214
25103,222
25114,236
25125,235
25137,245
25149,243
25160,251
25171,247
25183,247
25194,246
25205,244
25218,246
25229,244
25240,232
25251,233
25263,233
25274,231
25286,242
25297,242
25309,241
25320,233
25331,238
25344,243
25355,242
25366,247
25377,242
25389,231
25400,224
25412,222
25423,219
25435,221
25446,226
25457,227
25468,222
25481,221
25492,230
25503,234
25515,238
25526,234
25537,232
25549,232
25561,233
25572,236
25583,238
25594,236
25606,236
25618,237
25629,229
25640,241
25652,243
25663,242
25674,245
25687,236
25698,236
25709,234
25720,233
25732,240
25744,236
25755,243
25766,236
25778,228
25789,221
25800,222
25812,220
25824,218
25835,236
25846,236
25858,233
25869,229
25881,230
25892,222
25904,224
25915,224
25926,218
25937,222
25950,229
25961,237
25972,233
25984,234
25995,235
26006,229
26018,233
26030,232
26041,235
26052,235
26063,232
26076,223
26087,225
26098,224
26109,240
26121,241
26132,250
26144,279
26156,278
26167,314
26178,323
26189,361
26201,365
26213,389
26224,400
26235,446
26247,453
26258,439
26269,439
26281,439
26293,431
26304,414
26315,395
26327,366
26338,344
26350,322
26361,297
26373,295
26384,281
26395,269
26406,256
26419,250
26430,241
26441,235
26452,234
26464,237
26476,237
26487,238
26499,229
26510,224
26521,218
26532,222
26545,214
26556,213
26567,209
26578,218
26590,212
26601,205
26613,206
26625,208
26636,207
26647,213
26658,231
26670,236
26682,237
26693,235
26704,229
26716,233
26727,231
26738,221
26750,214
26762,208
26773,211
26784,206
26796,205
26808,206
26819,210
26830,202
26842,200
26853,205
26864,206
26876,215
26888,213
26899,209
26910,212
26921,205
26933,206
26945,205
26956,213
26968,214
26979,211
26990,213
27001,213
27014,211
27025,208
27036,215
27047,215
27059,218
27070,214
27082,208
27094,208
27105,208
27116,214
27127,210
27139,206
27151,215
27162,214
27173,218
27185,218
27196,222
27208,229
27219,225
27231,223
27242,213
27253,203
27265,199
27277,202
27288,205
27299,206
27311,206
27322,204
27333,214
27345,224
27357,225
27368,224
27379,217
27390,216
27402,213
27414,219
27425,224
27437,225
27448,222
27459,219
27470,217
27483,213
27494,222
27505,223
27516,222
27528,219
27540,215
27551,217
27563,218
27574,219
27585,219
27596,223
27609,227
27620,229
27631,232
27642,228
27654,229
27665,223
27677,223
27688,237
27700,241
27711,232
27722,227
27734,222
27746,219
27757,216
27768,215
27780,209
27791,210
27802,207
27814,216
27826,216
27837,223
27848,229
27859,222
27871,225
27883,230
27894,227
27906,228
27917,232
27928,233
27940,224
27952,229
27963,237
27974,243
27985,236
27997,245
28009,240
28020,233
28032,236
28043,244
28054,238
28065,243
28078,248
28089,250
28100,256
28111,262
28123,263
28134,264
28146,307
28157,293
28169,302
28180,299
28191,322
28203,311
28215,298
28226,310
28237,306
28249,317
28260,310
28271,339
28283,329
28295,303
28306,293
28317,287
28328,271
28341,264
28352,264
28363,261
28375,253
28386,248
28397,247
28409,245
28421,240
28432,231
28443,229
28454,234
28466,233
28478,224
28489,221
28500,228
28512,233
28523,227
28534,226
28547,225
28558,221
28569,212
28580,214
28592,220
28603,227
28615,229
28626,227
28638,217
28649,217
28660,224
28673,225
28684,217
28695,219
28706,213
28718,206
28729,204
28741,203
28752,202
28764,205
28775,207
28786,211
28797,208
28810,209
28821,201
28832,203
28844,209
28855,215
28866,219
28878,227
28890,245
28901,246
28912,239
28923,240
28935,239
28947,235
28958,236
28969,242
28981,239
28992,235
29003,231
29016,230
29027,225
29038,220
29049,215
29061,213
29073,216
29084,225
29095,222
29107,213
29118,215
29129,216
29142,218
29153,230
29164,237
29175,233
29187,233
29198,242
29210,243
29221,238
29233,238
29244,232
29255,221
29266,219
29279,219
29290,222
29301,228
29313,227
29324,223
29335,214
29347,218
29359,213
29370,216
29381,218
29392,228
29405,235
29416,228
29427,230
29438,227
29450,234
29461,239
29473,241
29485,244
29496,240
29507,242
29518,233
29530,233
29542,245
29553,247
29564,245
29576,237
29587,238
29598,231
29611,233
29622,232
29633,230
29644,230
29656,230
29667,232
29679,226
29690,227
29702,230
29713,231
29724,231
29735,236
29748,237
29759,236
29770,231
29782,231
29793,227
29805,228
29816,233
29828,228
29839,220
29850,217
29861,223
29874,221
29885,222
29896,224
29907,224
29919,226
29930,222
29942,220
29954,216
29965,222
29976,228
29987,229
29999,228
30011,227
30022,229
30033,223
30045,221
30056,218
30067,218
30080,238
30091,242
30102,253
30113,255
30125,272
30137,269
30148,279
30159,324
30171,336
30182,312
30193,308
30205,312
30217,309
30228,287
30239,277
30251,277
30262,309
30274,298
30285,298
30297,284
30308,273
30319,269
30330,276
30343,267
30354,261
30365,245
30376,240
30388,242
30399,253
30411,247
30423,245
30434,250
30445,239
30456,228
30469,229
30480,231
30491,224
30502,218
30514,228
30525,222
30537,216
30548,213
30560,216
30571,212
30582,211
30594,208
30606,214
30617,209
30628,205
30640,208
30651,208
30662,221
30674,228
30686,234
30697,241
30708,243
30720,233
30731,223
30743,230
30754,224
30766,224
30777,224
30788,223
30799,222
30812,224
30823,227
30834,228
30845,232
30857,230
30869,223
30880,215
30892,207
30903,210
30914,214
30925,214
30938,213
30949,208
30960,206
30971,208
30983,200
30994,200
31006,202
31017,205
31029,208
31040,206
31051,205
31063,204
31075,208
31086,213
31097,215
31109,213
31120,214
31131,212
31143,211
31155,219
31166,231
31177,239
31188,238
31200,235
31212,231
31223,224
31235,221
31246,217
31257,212
31269,217
31281,223
31292,219
31303,212
31314,210
31326,214
31338,211
31349,212
31361,223
31372,222
31383,212
31394,209
31407,211
31418,213
31429,210
31440,210
31452,207
31463,216
31475,224
31486,222
31498,228
31509,226
31520,230
31532,226
31544,222
31555,226
31566,230
31578,234
31589,232
31601,229
31612,224
31624,220
31635,219
31646,218
31657,221
31670,227
31681,229
31692,228
31704,229
31715,226
31726,224
31738,222
31750,229
31761,225
31772,223
31783,219
31795,224
31807,221
31818,219
31830,220
31841,216
31852,212
31863,213
31876,213
31887,213
31898,213
31909,219
31921,215
31932,218
31944,216
31955,213
31967,216
31978,223
31989,221
32002,212
32013,202
32024,253
32035,296
32047,315
32058,331
32070,369
32081,389
32093,372
32104,359
32115,344
32126,336
32139,307
32150,311
32161,301
32173,283
32184,293
32195,293
32207,273
32219,268
32230,263
32241,253
32252,248
32264,244
32276,237
32287,231
32299,222
32310,221
32321,210
32333,223
32345,221
32356,221
32367,225
32378,218
32390,211
32402,216
32413,218
32424,220
32436,222
32447,219
32458,220
32471,214
32482,208
32493,214
32504,205
32516,211
32527,220
32539,225
32550,226
32562,226
32573,220
32584,221
32595,225
32608,221
32619,218
32630,233
32642,238
32653,239
32665,231
32676,233
32688,231
32699,220
32710,223
32721,221
32734,220
32745,221
32756,222
32768,210
32779,210
32790,212
32802,208
32814,214
32825,219
32836,216
32847,221
32859,217
32871,217
32882,213
32893,215
32905,234
32916,236
32927,241
32940,239
32951,234
32962,227
32973,225
32985,234
32996,235
33008,239
33019,240
33031,236
33042,226
33053,224
33065,228
33077,224
33088,227
33099,224
33111,228
33122,226
33134,225
33145,220
33157,216
33168,218
33179,219
33190,220
33203,218
33214,221
33225,218
33236,211
33248,219
33259,216
33271,214
33283,217
33294,225
33305,223
33316,218
33328,216
33340,213
33351,211
33362,215
33374,215
33385,215
33397,216
33409,215
33420,215
33431,222
33442,232
33454,229
33466,226
33477,230
33488,225
33500,222
33511,224
33522,240
33534,249
33546,246
33557,238
33568,233
33580,223
33591,229
33603,238
33614,242
33626,242
33637,240
33648,239
33659,233
33672,236
33683,239
33694,240
33705,243
33717,239
33728,225
33740,216
33752,215
33763,219
33774,227
33785,229
33798,230
33809,229
33820,227
33831,230
33843,241
33854,253
33866,258
33878,259
33889,251
33900,243
33911,244
33923,231
33935,225
33946,232
33957,236
33969,242
33980,244
33991,250
34003,265
34015,268
34026,268
34037,282
34049,294
34060,327
34072,341
34083,329
34095,303
34106,376
34117,393
34129,405
34141,407
34152,417
34163,407
34174,376
34186,385
34198,426
34209,439
34221,392
34232,365
34243,337
34254,360
34267,379
34278,353
34289,337
34300,331
34312,324
34323,331
34335,319
34347,306
34358,300
34369,287
34380,274
34392,273
34404,268
34415,252
34426,246
34438,242
34449,241
34460,234
34472,233
34484,237
34495,228
34506,225
34518,235
34530,226
34541,225
34552,224
34564,224
34575,220
34586,220
34598,234
34610,256
34621,258
34632,260
34643,249
34655,253
34667,240
34678,239
34690,240
34701,243
34712,249
34723,239
34736,222
34747,220
34758,222
34769,236
34781,229
34792,227
34804,226
34816,220
34827,220
34838,231
34849,229
34861,225
34873,226
34884,228
34895,220
34907,222
34918,219
34930,210
34941,213
34953,222
34964,225
34975,220
34987,229
34999,233
35010,227
35021,226
35033,222
35044,226
35055,220
35067,228
35079,229
35090,227
35101,226
35112,225
35124,229
35136,228
35147,236
35159,235
35170,231
35181,229
35192,219
35205,216
35216,216
35227,215
35238,214
35250,215
35262,213
35273,205
35284,199
35296,201
35307,204
35318,205
35331,208
35342,209
35353,211
35364,208
35376,204
35387,202
35399,208
35410,207
35422,213
35433,207
35444,205
35456,203
35468,200
35479,201
35490,204
35502,208
35513,204
35524,212
35536,219
35548,211
35559,215
35570,216
35581,220
35594,219
35605,221
35616,226
35628,233
35639,236
35650,233
35662,241
35674,237
35685,245
35696,247
35707,244
35719,248
35731,241
35742,238
35753,237
35765,268
35776,285
35787,270
35800,265
35811,284
35822,281
35833,275
35845,285
35856,288
35868,279
35879,261
35891,249
35902,244
35913,246
35924,255
35937,255
35948,252
35959,247
35971,240
35982,236
35994,232
36005,265
36017,279
36028,325
36039,335
36050,368
36063,369
36074,362
36085,412
36097,372
36108,371
36119,354
36131,377
36143,375
36154,358
36165,373
36176,415
36188,421
36200,432
36211,424
36222,419
36234,410
36245,386
36256,354
36269,329
36280,318
36291,291
36302,301
36314,297
36326,283
36337,270
36348,263
36360,268
36371,252
36382,247
36395,237
36406,236
36417,242
36428,229
36440,227
36451,211
36463,209
36474,207
36486,208
36497,220
36508,216
36519,219
36532,219
36543,224
36554,227
36566,214
36577,212
36588,206
36600,220
36612,221
36623,219
36634,224
36645,223
36657,223
36669,218
36680,223
36691,228
36703,225
36714,239
36726,239
36738,237
36749,229
36760,224
36771,223
36783,227
36795,237
36806,237
36817,248
36829,244
36840,244
36851,242
36864,243
36875,250
36886,257
36897,263
36909,251
36920,263
36932,261
36943,258
36955,263
36966,277
36977,270
36988,259
37001,253
37012,253
37023,245
37035,246
37046,247
37058,246
37069,250
37081,253
37092,242
37103,241
37114,234
37127,227
37138,226
37149,229
37160,228
37172,221
37183,219
37195,225
37207,215
37218,217
37229,222
37240,220
37252,219
37264,218
37275,215
37286,207
37298,210
37309,220
37320,223
37332,218
37344,215
37355,218
37366,218
37378,221
37389,217
37401,212
37412,211
37424,210
37435,211
37446,208
37458,204
37470,212
37481,217
37492,224
37504,226
37515,226
37527,236
37538,242
37550,255
37561,259
37572,265
37583,278
37596,284
37607,273
37618,266
37629,269
37641,268
37652,267
37664,271
37676,272
37687,264
37698,268
37709,272
37721,268
37733,289
37744,276
37755,274
37767,265
37778,275
37790,275
37801,268
37813,273
37824,256
37835,248
37847,242
37859,256
37870,257
37881,259
37893,254
37904,257
37915,250
37927,241
37939,237
37950,240
37961,245
37972,246
37984,242
37996,240
38007,235
38019,251
38030,252
38041,261
38052,254
38065,278
38076,314
38087,312
38098,332
38110,358
38121,335
38133,339
38145,334
38156,383
38167,382
38178,374
38191,350
38202,369
38213,345
38224,325
38236,326
38247,313
38259,331
38270,321
38282,298
38293,282
38304,294
38316,293
38328,279
38339,277
38350,269
38362,256
38373,244
38384,234
38396,229
38408,235
38419,243
38430,242
38441,235
38453,227
38465,224
38476,224
38488,223
38499,226
38510,226
38522,229
38534,221
38545,223
38556,224
38567,226
38579,222
38591,225
38602,220
38614,231
38625,231
38636,221
38647,217
38660,218
38671,218
38682,221
38693,232
38705,240
38716,235
38728,232
38739,229
38751,226
38762,215
38773,219
38785,223
38797,227
38808,226
38819,227
38831,231
38842,223
38853,230
38865,234
38877,250
38888,258
38899,259
38910,255
38923,255
38934,259
38945,251
38957,256
38968,252
38979,250
38991,252
39003,244
39014,237
39025,229
39036,220
39048,217
39060,210
39071,215
39083,223
39094,223
39105,218
39116,225
39129,232
39140,236
39151,233
39162,239
39174,238
39185,228
39197,225
39208,221
39220,222
39231,217
39242,218
39255,218
39266,214
39277,210
39288,207
39300,210
39311,214
39323,220
39334,217
39346,211
39357,205
39368,203
39379,202
39392,213
39403,212
39414,210
39426,209
39437,210
39448,208
39460,205
39472,213
39483,215
39494,224
39505,221
39517,218
39529,215
39540,216
39552,228
39563,223
39574,223
39585,217
39598,217
39609,214
39620,212
39631,220
39643,222
39655,221
39666,219
39677,216
39689,212
39700,212
39711,217
39724,220
39735,223
39746,217
39757,217
39769,221
39780,236
39792,236
39803,244
39815,236
39826,231
39837,223
39848,222
39861,221
39872,225
39883,220
39895,223
39906,217
39917,209
39929,208
39941,209
39952,212
39963,219
39974,222
39986,220
39998,215
40009,213
40020,213
40032,208
40043,211
40055,214
40067,219
40078,219
40089,222
40100,223
40112,229
40124,232
40135,230
40146,219
40158,216
40169,220
40180,221
40193,216
40204,225
40215,231
40226,250
40238,253
40249,247
40261,236
40272,248
40284,237
40295,238
40306,298
40317,314
40330,318
40341,325
40352,313
40364,324
40375,304
40387,294
40398,282
40410,275
40421,267
40432,265
40443,271
40456,270
40467,280
40478,267
40489,256
40501,252
40512,238
40524,239
40536,239
40547,240
40558,237
40569,240
40581,240
40593,233
40604,226
40615,217
40627,216
40638,221
40649,227
40662,222
40673,220
40684,221
40695,222
40707,233
40718,236
40730,234
40741,243
40753,235
40764,226
40775,226
40787,226
40799,223
40810,223
40821,223
40833,216
40844,204
40856,210
40867,215
40879,215
40890,215
40901,208
40912,206
40925,199
40936,199
40947,202
40958,199
40970,208
40981,211
40993,213
41005,217
41016,223
41027,221
41038,222
41050,229
41062,232
41073,228
41084,232
41096,236
41107,232
41119,229
41131,222
41142,218
41153,212
41164,214
41176,214
41188,212
41199,212
41210,213
41222,215
41233,214
41244,219
41256,221
41268,220
41279,217
41290,218
41302,212
41313,214
41325,219
41336,214
41348,210
41359,215
41370,217
41381,212
41394,205
41405,199
41416,201
41427,203
41439,204
41451,198
41462,200
41474,202
41485,198
41496,199
41507,204
41520,205
41531,205
41542,204
41553,204
41565,206
41576,210
41588,215
41600,216
41611,214
41622,212
41633,212
41645,207
41657,217
41668,222
41679,221
41691,215
41702,214
41713,210
41725,209
41737,208
41748,208
41759,203
41771,190
41782,195
41794,199
41805,207
41817,210
41828,211
41839,208
41851,208
41863,216
41874,209
41885,224
41896,227
41908,228
41920,229
41931,223
41943,234
41954,224
41965,218
41976,218
41989,220
42000,218
42011,223
42022,227
42034,233
42045,230
42057,232
42068,228
42080,229
42091,238
42102,240
42114,244
42126,245
42137,239
42148,235
42160,231
42171,241
42182,238
42194,235
42206,233
42217,228
42228,228
42240,231
42252,236
42263,251
42274,262
42286,272
42297,289
42308,282
42320,281
42332,296
42343,317
42354,318
42365,319
42377,309
42389,320
42400,324
42412,309
42423,298
42434,297
42445,307
42458,293
42469,292
42480,283
42491,264
42503,251
42514,251
42526,255
42537,249
42549,244
42560,258
42571,253
42584,239
42595,243
42606,237
42617,234
42629,234
42640,235
42652,229
42663,230
42675,232
42686,232
42697,229
42708,227
42721,230
42732,223
42743,219
42755,220
42766,224
42777,226
42789,225
42801,221
42812,216
42823,212
42834,208
42846,207
42858,210
42869,216
42881,217
42892,209
42903,206
42915,201
42927,202
42938,203
42949,217
42960,227
42972,230
42984,225
42995,221
43006,218
43018,221
43029,222
43040,219
43053,227
43064,232
43075,227
43086,218
43098,226
43109,238
43121,239
43132,237
43144,235
43155,227
43166,227
43177,223
43190,222
43201,225
43212,232
43224,228
43235,220
43246,214
43258,212
43270,206
43281,203
43292,209
43303,210
43316,210
43327,212
43338,214
43350,209
43361,207
43372,206
43384,204
43396,207
43407,216
43418,210
43429,207
43441,206
43453,209
43464,213
43475,213
43487,214
43498,211
43509,207
43522,201
43533,205
43544,207
43555,211
43567,215
43578,213
43590,216
43601,218
43613,213
43624,213
43635,223
43648,231
43659,230
43670,231
43681,222
43693,225
43704,217
43716,223
43727,225
43739,225
43750,224
43761,222
43772,222
43785,220
43796,228
43807,221
43819,220
43830,226
43841,222
43853,218
43865,219
43876,219
43887,218
43898,214
43910,214
43922,217
43933,222
43944,229
43956,227
43967,228
43978,222
43991,220
44002,222
44013,220
44024,228
44036,226
44048,226
44059,227
44070,221
44082,214
44093,216
44104,225
44116,226
44128,233
44139,235
44150,230
44162,237
44173,238
44185,269
44196,279
44208,272
44219,265
44230,278
44241,278
44254,268
44265,290
44276,295
44288,312
44299,310
44310,336
44322,329
44334,325
44345,317
44356,317
44367,325
44380,332
44391,301
44402,296
44413,284
44425,270
44436,258
44448,260
44460,251
44471,250
44482,267
44493,253
44505,244
44517,245
44528,246
44539,236
44551,224
44562,231
44573,230
44585,231
44597,224
44608,223
44619,220
44631,221
44642,219
44654,217
44665,228
44677,225
44688,217
44699,208
44710,210
44723,215
44734,219
44745,223
44756,216
44768,223
44780,220
44791,212
44803,206
44814,207
44825,212
44836,211
44849,206
44860,216
44871,220
44882,217
44894,218
44905,217
44917,219
44929,223
44940,223
44951,231
44962,224
44974,221
44986,229
44997,225
45008,220
45020,225
45031,231
45042,228
45054,223
45066,221
45077,214
45088,208
45100,212
45111,221
45123,224
45134,230
45146,230
45157,218
45168,213
45180,208
45192,209
45203,209
45214,216
45225,214
45237,207
45249,199
45260,202
45272,205
45283,207
45294,211
45305,207
45318,207
45329,211
45340,206
45351,206
45363,211
45374,213
45386,208
45398,203
45409,202
45420,202
45431,199
45443,199
45455,203
45466,206
45477,210
45489,217
45500,213
45512,214
45523,211
45535,209
45546,207
45557,208
45569,214
45581,215
45592,220
45603,219
45615,214
45626,212
45637,209
45649,223
45661,222
45672,225
45683,236
45694,234
45706,226
45718,219
45729,224
45741,219
45752,227
45763,229
45774,226
45787,224
45798,225
45809,223
45820,215
45832,222
45844,225
45855,217
45867,219
45878,222
45889,225
45900,222
45913,221
45924,222
45935,219
45946,218
45958,216
45969,216
45981,218
45992,218
46004,219
46015,216
46026,218
46038,225
46050,227
46061,223
46072,213
46084,214
46095,213
46106,216
46118,218
46130,225
46141,225
46152,225
46163,222
46175,220
46187,239
46198,243
46210,239
46221,237
46232,221
46244,223
46256,220
46267,234
46278,242
46289,253
46301,250
46313,238
46324,230
46336,221
46347,227
46358,248
46369,261
46382,263
46393,260
46404,257
46415,244
46427,267
46438,280
46450,283
46461,269
46473,268
46484,259
46495,243
46507,242
46519,256
46530,259
46541,257
46553,245
46564,232
46576,230
46587,220
46599,229
46610,229
46621,226
46632,218
46645,212
46656,214
46667,207
46679,202
46690,199
46701,205
46713,207
46725,208
46736,197
46747,207
46758,203
46770,204
46782,206
46793,203
46804,206
46816,203
46827,208
46838,212
46851,205
46862,201
46873,210
46884,219
46896,216
46907,213
46919,212
46930,207
46942,205
46953,206
46964,210
46977,210
46988,212
46999,214
47010,218
47022,217
47033,226
47045,237
47056,236
47068,237
47079,237
47090,235
47101,224
47114,225
47125,218
47136,218
47148,215
47159,214
47170,210
47182,200
47194,211
47205,211
47216,217
47227,218
47239,214
47251,211
47262,207
47273,199
47285,196
47296,201
47308,206
47320,210
47331,206
47342,211
47353,213
47365,207
47377,203
47388,202
47399,203
47411,201
47422,202
47433,196
47446,199
47457,211
47468,215
47479,213
47491,209
47502,210
47514,203
47525,203
47537,208
47548,216
47559,215
47570,214
47583,217
47594,214
47605,218
47617,231
47628,233
47639,234
47651,240
47663,238
47674,240
47685,240
47696,236
47709,228
47720,225
47731,232
47742,243
47754,249
47765,246
47777,243
47789,234
47800,230
47811,241
47822,243
47834,250
47846,243
47857,231
47868,228
47880,220
47891,221
47902,219
47915,221
47926,224
47937,219
47948,213
47960,214
47971,220
47983,215
47994,219
48006,218
48017,214
48028,215
48039,215
48052,223
48063,221
48074,223
48086,221
48097,220
48109,215
48120,219
48132,218
48143,212
48154,222
48165,225
48178,229
48189,222
48200,237
48211,237
48223,237
48234,233
48246,227
48258,236
48269,251
48280,265
48291,264
48303,272
48315,268
48326,280
48337,287
48349,310
48360,354
48371,323
48384,317
48395,344
48406,330
48417,344
48429,356
48441,376
48452,347
48463,350
48475,339
48486,323
48497,323
48509,308
48521,310
48532,300
48543,295
48555,298
48566,286
48578,289
48589,284
48601,269
48612,282
48623,279
48634,269
48647,265
48658,266
48669,269
48680,260
48692,250
48703,244
48715,248
48727,243
48738,270
48749,262
48760,252
48773,252
48784,246
48795,257
48806,287
48818,289
48829,279
48841,272
48852,268
48864,260
48875,251
48886,243
48898,250
48910,245
48921,241
48932,251
48944,246
48955,237
48966,241
48978,248
48990,253
49001,261
49012,258
49024,255
49035,256
49047,254
49058,253
49070,261
49081,266
49092,261
49103,258
49116,253
49127,255
49138,263
49149,270
49161,266
49173,267
49184,260
49196,258
49207,251
49218,247
49229,240
49242,234
49253,237
49264,240
49275,248
49287,246
49298,238
49310,237
49321,246
49333,241
49344,237
49355,242
49367,237
49379,229
49390,234
49401,227
49413,223
49424,226
49435,227
49447,223
49459,218
49470,216
49481,215
49492,216
49505,231
49516,237
49527,237
49539,235
49550,227
49561,222
49573,226
49585,233
49596,233
49607,238
49618,237
49630,236
49642,231
49653,227
49665,231
49676,229
49687,234
49698,231
49711,228
49722,228
49733,227
49744,235
49756,237
49767,239
49779,242
49790,236
49802,230
49813,233
49824,238
49836,242
49848,241
49859,232
49870,231
49882,229
49893,224
49905,221
49916,223
49928,219
49939,228
49950,223
49961,220
49974,216
49985,210
49996,226
50008,234
50019,232
50030,226
50042,227
50054,235
50065,225
50076,226
50087,230
50099,229
50111,238
50122,237
50134,240
50145,231
50156,236
50167,241
50180,232
50191,231
50202,240
50213,235
50225,222
50237,217
50248,232
50259,231
50271,290
50282,332
50293,339
50306,352
50317,389
50328,429
50339,428
50351,488
50362,500
50374,503
50385,509
50397,473
50408,456
50419,428
50430,411
50443,408
50454,404
50465,387
50477,370
50488,401
50499,418
50511,389
50523,377
50534,343
50545,351
50556,331
50568,357
50580,331
50591,326
50603,307
50614,306
50625,313
50637,325
50649,317
50660,296
50671,284
50682,283
50694,287
50706,276
50717,280
50728,280
50740,283
50751,286
50762,278
50775,281
50786,272
50797,272
50808,262
50820,255
50831,248
50843,241
50854,246
50866,234
50877,231
50888,226
50899,238
50912,237
50923,240
50934,256
50946,250
50957,249
50969,256
50980,256
50992,256
51003,267
51014,265
51025,251
51038,244
51049,259
51060,265
51072,261
51083,254
51094,246
51106,239
51118,241
51129,242
51140,238
51151,230
51163,233
51175,227
51186,215
51197,216
51209,213
51220,220
51231,223
51244,223
51255,232
51266,225
51277,227
51289,226
51300,222
51312,229
51323,235
51335,226
51346,219
51357,217
51369,212
51381,216
51392,217
51403,220
51415,217
51426,212
51438,210
51449,209
51461,208
51472,209
51483,216
51494,215
51507,214
51518,227
51529,224
51540,221
51552,213
51563,208
51575,205
51587,205
51598,214
51609,211
51620,216
51632,220
51644,214
51655,208
51666,213
51678,217
51689,218
51701,222
51713,225
51724,225
51735,221
51746,221
51758,213
51770,213
51781,223
51792,227
51804,221
51815,226
51826,231
51838,232
51850,224
51861,227
51872,231
51884,231
51895,235
51907,242
51918,241
51930,239
51941,239
51952,234
51963,235
51976,238
51987,235
51998,229
52009,240
52021,244
52032,237
52044,245
52056,249
52067,245
52078,244
52089,232
52102,230
52113,227
52124,221
52135,221
52147,220
52158,226
52170,229
52182,230
52193,232
52204,230
52215,224
52227,219
52239,226
52250,226
52261,224
52273,223
52284,224
52295,222
52307,217
52319,217
52330,215
52341,211
52353,208
52364,217
52376,238
52387,241
52399,249
52410,260
52421,282
52432,278
52445,318
52456,317
52467,332
52478,359
52490,349
52502,358
52513,365
52525,376
52536,362
52547,358
52558,353
52571,352
52582,336
52593,351
52604,345
52616,345
52627,331
52639,304
52651,303
52662,294
52673,308
52684,301
52696,304
52708,307
52719,305
52730,296
52742,283
52753,274
52764,264
52776,272
52788,261
52799,250
52810,241
52822,245
52834,253
52845,273
52856,265
52868,261
52879,254
52890,243
52902,246
52914,242
52925,234
52936,234
52947,239
52959,233
52971,225
52982,223
52994,217
53005,217
53016,220
53027,214
53040,218
53051,219
53062,221
53073,219
53085,211
53096,204
53108,205
53120,216
53131,219
53142,237
53153,233
53166,224
53177,224
53188,217
53199,215
53211,223
53222,223
53234,224
53245,222
53257,218
53268,214
53279,218
53291,228
53303,226
53314,228
53325,224
53337,226
53348,218
53359,220
53371,223
53383,223
53394,227
53405,226
53416,228
53428,220
53440,217
53451,241
53463,251
53474,261
53485,260
53496,247
53509,237
53520,241
53531,240
53542,232
53554,231
53566,237
53577,223
53588,217
53600,217
53611,222
53622,221
53635,221
53646,219
53657,215
53668,210
53680,212
53691,209
53703,207
53714,210
53726,211
53737,216
53748,221
53760,233
53772,229
53783,223
53794,224
53806,221
53817,224
53828,222
53840,227
53852,232
53863,228
53874,229
53885,221
53897,218
53909,220
53920,221
53932,227
53943,229
53954,228
53966,224
53978,221
53989,224
54000,219
54011,225
54023,231
54035,234
54046,237
54057,240
54069,233
54080,227
54091,226
54104,236
54115,238
54126,239
54137,235
54149,236
54160,226
54172,236
54183,230
54195,231
54206,230
54217,230
54228,233
54241,237
54252,234
54263,227
54275,212
54286,208
54298,214
54309,214
54321,223
54332,226
54343,225
54354,223
54367,226
54378,227
54389,222
54401,220
54412,224
54423,218
54435,219
54447,219
54458,215
54469,214
54480,227
54492,236
54504,236
54515,230
54526,225
54538,224
54549,223
54560,247
54573,278
54584,313
54595,310
54606,342
54618,379
54630,391
54641,380
54652,392
54664,463
54675,435
54686,416
54699,375
54710,390
54721,362
54732,340
54744,353
54755,338
54767,341
54778,332
54790,311
54801,304
54812,298
54823,282
54836,281
54847,276
54858,267
54870,263
54881,272
54892,257
54904,248
54916,250
54927,241
54938,234
54949,229
54961,223
54973,225
54984,249
54995,240
55007,236
55018,238
55030,243
55042,244
55053,239
55064,236
55075,231
55087,227
55099,235
55110,240
55121,240
55133,234
55144,234
55155,243
55168,242
55179,232
55190,232
55201,231
55213,229
55224,235
55236,228
55247,217
55259,217
55270,214
55281,218
55292,218
55305,228
55316,228
55327,229
55339,228
55350,222
55362,219
55373,225
55385,239
55396,238
55407,235
55418,230
55431,221
55442,219
55453,221
55464,225
55476,225
55487,231
55499,230
55511,226
55522,223
55533,218
55544,219
55556,224
55568,233
55579,223
55590,228
55602,224
55613,221
55624,225
55636,215
55648,215
55659,212
55670,218
55682,221
55693,230
55705,231
55716,230
55728,239
55739,235
55750,233
55762,229
55774,237
55785,230
55796,227
55808,233
55819,227
55831,226
55842,233
55854,235
55865,235
55876,231
55887,225
55900,215
55911,215
55922,219
55933,219
55945,229
55956,233
55968,231
55980,228
55991,223
56002,222
56013,226
56025,221
56037,220
56048,218
56059,220
56071,226
56082,234
56093,225
56105,224
56117,225
56128,224
56139,218
56151,212
56163,207
56174,205
56185,206
56197,209
56208,208
56219,206
56231,206
56243,197
56254,198
56265,204
56276,208
56288,208
56300,209
56311,209
56323,207
56334,207
56345,207
56356,202
56369,206
56380,214
56391,217
56402,219
56414,221
56425,241
56437,238
56449,230
56460,266
56471,282
56482,274
56495,287
56506,324
56517,327
56528,338
56540,351
56551,326
56563,354
56574,324
56586,312
56597,298
56608,288
56620,274
56632,269
56643,277
56654,274
56666,273
56677,266
56688,265
56700,246
56712,256
56723,250
56734,239
56745,245
56757,247
56769,243
56780,243
56792,241
56803,235
56814,234
56826,227
56838,234
56849,232
56860,224
56871,219
56883,227
56895,212
56906,214
56918,213
56929,217
56940,211
56951,209
56964,205
56975,200
56986,204
56997,217
57009,221
57020,214
57032,215
57043,208
57055,210
57066,211
57077,205
57089,225
57101,217
57112,217
57123,215
57135,213
57146,210
57157,205
57169,207
57181,219
57192,214
57203,209
57214,201
57227,191
57238,201
57249,201
57261,199
57272,196
57283,195
57295,191
57307,201
57318,199
57329,194
57340,197
57352,202
57364,204
57375,210
57387,215
57398,217
57409,216
57420,225
57433,214
57444,218
57455,218
57466,224
57478,225
57489,236
57501,224
57512,210
57524,206
57535,207
57546,204
57559,203
57570,217
57581,213
57592,208
57604,216
57615,208
57627,208
57638,209
57650,208
57661,207
57672,196
57683,198
57696,204
57707,201
57718,203
57730,198
57741,199
57752,192
57764,187
57776,189
57787,195
57798,200
57809,203
57821,199
57833,197
57844,197
57856,197
57867,203
57878,207
57889,212
57902,209
57913,202
57924,204
57935,203
57947,197
57959,206
57970,198
57981,201
57993,202
58004,197
58015,192
58028,191
58039,194
58050,204
58061,199
58073,200
58084,207
58096,201
58107,195
58119,200
58130,201
58141,201
58152,206
58165,208
58176,212
58187,207
58199,203
58210,200
58221,199
58233,203
58245,213
58256,207
58267,207
58278,208
58291,205
58302,205
58313,219
58324,225
58336,244
58347,250
58359,264
58371,269
58382,272
58393,287
58404,310
58416,314
58428,343
58439,353
58450,370
58462,365
58473,380
58484,383
58497,369
58508,370
58519,355
58530,325
58542,313
58553,329
58565,335
58576,330
58588,332
58599,306
58610,280
58621,280
58634,282
58645,274
58656,283
58668,264
58679,248
58691,233
58702,233
58714,231
58725,226
58736,247
58747,231
58760,222
58771,212
58782,215
58793,209
58805,220
58816,221
58828,221
58840,229
58851,235
58862,228
58873,219
58885,212
58897,209
58908,205
58919,206
58931,209
58942,211
58953,205
58966,201
58977,192
58988,192
58999,192
59011,203
59023,196
59034,191
59045,185
59057,193
59068,198
59079,199
59091,206
59103,205
59114,201
59125,194
59137,190
59148,191
59160,197
59171,198
59183,199
59194,200
59205,205
59216,197
59229,192
59240,198
59251,197
59262,195
59274,196
59285,198
59297,198
59309,197
59320,201
59331,192
59342,193
59354,192
59366,191
59377,196
59388,199
59400,208
59411,211
59423,210
59435,204
59446,200
59457,200
59468,201
59480,205
59492,203
59503,199
59514,196
59526,195
59537,194
59548,198
59560,197
59572,199
59583,203
59594,203
59606,191
59617,188
59629,191
59640,196
59652,204
59663,203
59674,203
59685,199
59698,200
59709,200
59720,205
59731,210
59743,215
59755,215
59766,208
59778,212
59789,208
59800,205
59811,203
59824,199
59835,198
59846,197
59857,204
59869,205
59880,200
59892,199
59904,204
59915,207
59926,205
59937,210
59949,203
59961,201
59972,201
59983,199
59995,197
60006,204
60017,211
60029,207
60041,201
60052,200
60063,197
60075,199
60086,201
60098,203
60109,198
60121,195
60132,196
60143,194
60155,194
60167,201
60178,205
60189,206
60200,201
60212,198
60224,199
60235,198
60247,199
60258,198
60269,197
60280,203
60293,208
60304,224
60315,244
60326,269
60338,297
60349,315
60361,324
60372,352
60384,340
60395,374
60406,348
60418,338
60430,344
60441,356
60452,338
60464,336
60475,317
60487,324
60498,338
60510,358
60521,339
60532,333
60544,317
60556,309
60567,313
60578,332
60590,315
60601,286
60612,269
60624,257
60636,274
60647,264
60658,255
60669,255
60681,254
60693,256
60704,242
60716,241
60727,236
60738,231
60749,227
60762,220
60773,224
60784,233
60795,226
60807,215
60818,208
60830,206
60841,204
60853,205
60864,210
60875,211
60888,198
60899,205
60910,204
60921,200
60933,204
60944,203
60956,208
60967,205
60979,209
60990,206
61001,202
61012,201
61025,200
61036,198
61047,206
61059,212
61070,212
61081,212
61093,221
61105,215
61116,211
61127,216
61138,210
61150,210
6
